# Pulseq sequence file
# Created by PyPulseq

[VERSION]
major 1
minor 4
revision 0

[DEFINITIONS]
AdcRasterTime 1e-07 
BlockDurationRaster 1e-05 
FA 60 
FOV 0.256 0.256 0.08 
GradientRasterTime 1e-05 
Name vfagre3d 
RadiofrequencyRasterTime 1e-06 
ReconMatrixSize 64 64 20 
SliceThickness 0.08 
TE 0.004 
TR 0.032 
TotalDuration 242.82768 

# Format of blocks:
# NUM DUR RF  GX  GY  GZ  ADC  EXT
[BLOCKS]
    1   0   0   0   0   0  0  1
    2   0   0   0   0   0  0  2
    3   0   0   0   0   0  0  3
    4 218   1   0   0 125  0  0
    5  60   0   0   0   0  0  0
    6  68   0  67  65  89  0  0
    7 327   0  68   0   0  0  0
    8 2481   0 126  66  90  0  0
    9  47   0   0   0   0  0  0
   10 218   2   0   0 125  0  0
   11  60   0   0   0   0  0  0
   12  68   0  67  65  89  0  0
   13 327   0  68   0   0  0  0
   14 2481   0 127  66  90  0  0
   15  47   0   0   0   0  0  0
   16 218   0   0   0 125  0  0
   17  60   0   0   0   0  0  0
   18  68   0  67  65  89  0  0
   19 327   0  68   0   0  0  0
   20 2481   0 127  66  90  0  0
   21  47   0   0   0   0  0  0
   22 218   0   0   0 125  0  0
   23  60   0   0   0   0  0  0
   24  68   0  67  65  89  0  0
   25 327   0  68   0   0  0  0
   26 2481   0 127  66  90  0  0
   27  47   0   0   0   0  0  0
   28 218   3   0   0 125  0  0
   29  60   0   0   0   0  0  0
   30  68   0  67  65  89  0  0
   31 327   0  68   0   0  0  0
   32 2481   0 127  66  90  0  0
   33  47   0   0   0   0  0  0
   34 218   4   0   0 125  0  0
   35  60   0   0   0   0  0  0
   36  68   0  67  65  89  0  0
   37 327   0  68   0   0  0  0
   38 2481   0 127  66  90  0  0
   39  47   0   0   0   0  0  0
   40 218   0   0   0 125  0  0
   41  60   0   0   0   0  0  0
   42  68   0  67  65  89  0  0
   43 327   0  68   0   0  0  0
   44 2481   0 127  66  90  0  0
   45  47   0   0   0   0  0  0
   46 218   0   0   0 125  0  0
   47  60   0   0   0   0  0  0
   48  68   0  67  65  89  0  0
   49 327   0  68   0   0  0  0
   50 2481   0 127  66  90  0  0
   51  47   0   0   0   0  0  0
   52 218   5   0   0 125  0  0
   53  60   0   0   0   0  0  0
   54  68   0  67  65  89  0  0
   55 327   0  68   0   0  0  0
   56 2481   0 127  66  90  0  0
   57  47   0   0   0   0  0  0
   58 218   6   0   0 125  0  0
   59  60   0   0   0   0  0  0
   60  68   0  67  65  89  0  0
   61 327   0  68   0   0  0  0
   62 2481   0 127  66  90  0  0
   63  47   0   0   0   0  0  0
   64 218   0   0   0 125  0  0
   65  60   0   0   0   0  0  0
   66  68   0  67  65  89  0  0
   67 327   0  68   0   0  0  0
   68 2481   0 127  66  90  0  0
   69  47   0   0   0   0  0  0
   70 218   0   0   0 125  0  0
   71  60   0   0   0   0  0  0
   72  68   0  67  65  89  0  0
   73 327   0  68   0   0  0  0
   74 2481   0 127  66  90  0  0
   75  47   0   0   0   0  0  0
   76 218   7   0   0 125  0  0
   77  60   0   0   0   0  0  0
   78  68   0  67  65  89  0  0
   79 327   0  68   0   0  0  0
   80 2481   0 127  66  90  0  0
   81  47   0   0   0   0  0  0
   82 218   8   0   0 125  0  0
   83  60   0   0   0   0  0  0
   84  68   0  67  65  89  0  0
   85 327   0  68   0   0  0  0
   86 2481   0 127  66  90  0  0
   87  47   0   0   0   0  0  0
   88 218   0   0   0 125  0  0
   89  60   0   0   0   0  0  0
   90  68   0  67  65  89  0  0
   91 327   0  68   0   0  0  0
   92 2481   0 127  66  90  0  0
   93  47   0   0   0   0  0  0
   94 218   0   0   0 125  0  0
   95  60   0   0   0   0  0  0
   96  68   0  67  65  89  0  0
   97 327   0  68   0   0  0  0
   98 2481   0 127  66  90  0  0
   99  47   0   0   0   0  0  0
  100 218   9   0   0 125  0  0
  101  60   0   0   0   0  0  0
  102  68   0  67  65  89  0  0
  103 327   0  68   0   0  0  0
  104 2481   0 127  66  90  0  0
  105  47   0   0   0   0  0  0
  106 218  10   0   0 125  0  0
  107  60   0   0   0   0  0  0
  108  68   0  67  65  89  0  0
  109 327   0  68   0   0  0  0
  110 2481   0 127  66  90  0  0
  111  47   0   0   0   0  0  0
  112 218   0   0   0 125  0  0
  113  60   0   0   0   0  0  0
  114  68   0  67  65  89  0  0
  115 327   0  68   0   0  0  0
  116 2481   0 127  66  90  0  0
  117  47   0   0   0   0  0  0
  118 218   0   0   0 125  0  0
  119  60   0   0   0   0  0  0
  120  68   0  67  65  89  0  0
  121 327   0  68   0   0  0  0
  122 2481   0 127  66  90  0  0
  123  47   0   0   0   0  0  0
  124 218  11   0   0 125  0  0
  125  60   0   0   0   0  0  0
  126  68   0  67  65  89  0  0
  127 327   0  68   0   0  0  0
  128 2481   0 127  66  90  0  0
  129  47   0   0   0   0  0  0
  130 218  12   0   0 125  0  0
  131  60   0   0   0   0  0  0
  132  68   0  67  65  89  0  0
  133 327   0  68   0   0  0  0
  134 2481   0 127  66  90  0  0
  135  47   0   0   0   0  0  0
  136 218   0   0   0 125  0  0
  137  60   0   0   0   0  0  0
  138  68   0  67  65  89  0  0
  139 327   0  68   0   0  0  0
  140 2481   0 127  66  90  0  0
  141  47   0   0   0   0  0  0
  142 218   0   0   0 125  0  0
  143  60   0   0   0   0  0  0
  144  68   0  67  65  89  0  0
  145 327   0  68   0   0  0  0
  146 2481   0 127  66  90  0  0
  147  47   0   0   0   0  0  0
  148 218  13   0   0 125  0  0
  149  60   0   0   0   0  0  0
  150  68   0  67  65  89  0  0
  151 327   0  68   0   0  0  0
  152 2481   0 127  66  90  0  0
  153  47   0   0   0   0  0  0
  154 218  14   0   0 125  0  0
  155  60   0   0   0   0  0  0
  156  68   0  67  65  89  0  0
  157 327   0  68   0   0  0  0
  158 2481   0 127  66  90  0  0
  159  47   0   0   0   0  0  0
  160 218   0   0   0 125  0  0
  161  60   0   0   0   0  0  0
  162  68   0  67  65  89  0  0
  163 327   0  68   0   0  0  0
  164 2481   0 127  66  90  0  0
  165  47   0   0   0   0  0  0
  166 218   0   0   0 125  0  0
  167  60   0   0   0   0  0  0
  168  68   0  67  65  89  0  0
  169 327   0  68   0   0  0  0
  170 2481   0 127  66  90  0  0
  171  47   0   0   0   0  0  0
  172 218  15   0   0 125  0  0
  173  60   0   0   0   0  0  0
  174  68   0  67  65  89  0  0
  175 327   0  68   0   0  0  0
  176 2481   0 127  66  90  0  0
  177  47   0   0   0   0  0  0
  178 218  16   0   0 125  0  0
  179  60   0   0   0   0  0  0
  180  68   0  67  65  89  0  0
  181 327   0  68   0   0  0  0
  182 2481   0 127  66  90  0  0
  183  47   0   0   0   0  0  0
  184 218   0   0   0 125  0  0
  185  60   0   0   0   0  0  0
  186  68   0  67  65  89  0  0
  187 327   0  68   0   0  0  0
  188 2481   0 127  66  90  0  0
  189  47   0   0   0   0  0  0
  190 218   0   0   0 125  0  0
  191  60   0   0   0   0  0  0
  192  68   0  67  65  89  0  0
  193 327   0  68   0   0  0  0
  194 2481   0 127  66  90  0  0
  195  47   0   0   0   0  0  0
  196 218  17   0   0 125  0  0
  197  60   0   0   0   0  0  0
  198  68   0  67  65  89  0  0
  199 327   0  68   0   0  0  0
  200 2481   0 127  66  90  0  0
  201  47   0   0   0   0  0  0
  202 218  18   0   0 125  0  0
  203  60   0   0   0   0  0  0
  204  68   0  67  65  89  0  0
  205 327   0  68   0   0  0  0
  206 2481   0 127  66  90  0  0
  207  47   0   0   0   0  0  0
  208 218   0   0   0 125  0  0
  209  60   0   0   0   0  0  0
  210  68   0  67  65  89  0  0
  211 327   0  68   0   0  0  0
  212 2481   0 127  66  90  0  0
  213  47   0   0   0   0  0  0
  214 218   0   0   0 125  0  0
  215  60   0   0   0   0  0  0
  216  68   0  67  65  89  0  0
  217 327   0  68   0   0  0  0
  218 2481   0 127  66  90  0  0
  219  47   0   0   0   0  0  0
  220 218  19   0   0 125  0  0
  221  60   0   0   0   0  0  0
  222  68   0  67  65  89  0  0
  223 327   0  68   0   0  0  0
  224 2481   0 127  66  90  0  0
  225  47   0   0   0   0  0  0
  226 218  20   0   0 125  0  0
  227  60   0   0   0   0  0  0
  228  68   0  67  65  89  0  0
  229 327   0  68   0   0  0  0
  230 2481   0 127  66  90  0  0
  231  47   0   0   0   0  0  0
  232 218   0   0   0 125  0  0
  233  60   0   0   0   0  0  0
  234  68   0  67  65  89  0  0
  235 327   0  68   0   0  0  0
  236 2481   0 127  66  90  0  0
  237  47   0   0   0   0  0  0
  238 218   0   0   0 125  0  0
  239  60   0   0   0   0  0  0
  240  68   0  67  65  89  0  0
  241 327   0  68   0   0  0  0
  242 2481   0 127  66  90  0  0
  243  47   0   0   0   0  0  0
  244 218  21   0   0 125  0  0
  245  60   0   0   0   0  0  0
  246  68   0  67  65  89  0  0
  247 327   0  68   0   0  0  0
  248 2481   0 127  66  90  0  0
  249  47   0   0   0   0  0  0
  250 218  22   0   0 125  0  0
  251  60   0   0   0   0  0  0
  252  68   0  67  65  89  0  0
  253 327   0  68   0   0  0  0
  254 2481   0 127  66  90  0  0
  255  47   0   0   0   0  0  0
  256 218   0   0   0 125  0  0
  257  60   0   0   0   0  0  0
  258  68   0  67  65  89  0  0
  259 327   0  68   0   0  0  0
  260 2481   0 127  66  90  0  0
  261  47   0   0   0   0  0  0
  262 218   0   0   0 125  0  0
  263  60   0   0   0   0  0  0
  264  68   0  67  65  89  0  0
  265 327   0  68   0   0  0  0
  266 2481   0 127  66  90  0  0
  267  47   0   0   0   0  0  0
  268 218  23   0   0 125  0  0
  269  60   0   0   0   0  0  0
  270  68   0  67  65  89  0  0
  271 327   0  68   0   0  0  0
  272 2481   0 127  66  90  0  0
  273  47   0   0   0   0  0  0
  274 218  24   0   0 125  0  0
  275  60   0   0   0   0  0  0
  276  68   0  67  65  89  0  0
  277 327   0  68   0   0  0  0
  278 2481   0 127  66  90  0  0
  279  47   0   0   0   0  0  0
  280 218   0   0   0 125  0  0
  281  60   0   0   0   0  0  0
  282  68   0  67  65  89  0  0
  283 327   0  68   0   0  0  0
  284 2481   0 127  66  90  0  0
  285  47   0   0   0   0  0  0
  286 218   0   0   0 125  0  0
  287  60   0   0   0   0  0  0
  288  68   0  67  65  89  0  0
  289 327   0  68   0   0  0  0
  290 2481   0 127  66  90  0  0
  291  47   0   0   0   0  0  0
  292 218  25   0   0 125  0  0
  293  60   0   0   0   0  0  0
  294  68   0  67  65  89  0  0
  295 327   0  68   0   0  0  0
  296 2481   0 127  66  90  0  0
  297  47   0   0   0   0  0  0
  298 218  26   0   0 125  0  0
[RF]
1      652.384 3 4 0 100 0 0.680678
2      652.384 3 4 0 100 0 1.36136
3      652.384 3 4 0 100 0 2.72271
4      652.384 3 4 0 100 0 4.76475
5      652.384 3 4 0 100 0 7.48746
6      652.384 3 4 0 100 0 10.8909
7      652.384 3 4 0 100 0 14.9749
8      652.384 3 4 0 100 0 19.7397
9      652.384 3 4 0 100 0 25.1851
10      652.384 3 4 0 100 0 31.3112
11      652.384 3 4 0 100 0 38.118
12      652.384 3 4 0 100 0 45.6055
13      652.384 3 4 0 100 0 53.7736
14      652.384 3 4 0 100 0 62.6224
15      652.384 3 4 0 100 0 72.1519
16      652.384 3 4 0 100 0 82.3621
17      652.384 3 4 0 100 0 93.2529
18      652.384 3 4 0 100 0 104.824
19      652.384 3 4 0 100 0 117.077
20      652.384 3 4 0 100 0 130.01
21      652.384 3 4 0 100 0 143.623
22      652.384 3 4 0 100 0 157.917
23      652.384 3 4 0 100 0 172.892
24      652.384 3 4 0 100 0 188.548
25      652.384 3 4 0 100 0 204.884
26      652.384 3 4 0 100 0 221.901
27      652.384 3 4 0 100 0 239.599
28      652.384 3 4 0 100 0 257.977
29      652.384 3 4 0 100 0 277.036
30      652.384 3 4 0 100 0 296.776
31      652.384 3 4 0 100 0 317.196
32      652.384 3 4 0 100 0 338.297
33      652.384 3 4 0 100 0 360.079
34      652.384 3 4 0 100 0 382.541
35      652.384 3 4 0 100 0 405.684
36      652.384 3 4 0 100 0 429.508
37      652.384 3 4 0 100 0 454.012
38      652.384 3 4 0 100 0 479.198
39      652.384 3 4 0 100 0 505.063
40      652.384 3 4 0 100 0 531.61
41      652.384 3 4 0 100 0 558.837
42      652.384 3 4 0 100 0 586.745
43      652.384 3 4 0 100 0 615.333
44      652.384 3 4 0 100 0 644.602
45      652.384 3 4 0 100 0 674.552
46      652.384 3 4 0 100 0 705.183
47      652.384 3 4 0 100 0 736.494
48      652.384 3 4 0 100 0 768.486
49      652.384 3 4 0 100 0 801.158
50      652.384 3 4 0 100 0 834.512
51      652.384 3 4 0 100 0 868.546
52      652.384 3 4 0 100 0 903.26
53      652.384 3 4 0 100 0 938.656
54      652.384 3 4 0 100 0 974.731
55      652.384 3 4 0 100 0 1011.49
56      652.384 3 4 0 100 0 1048.93
57      652.384 3 4 0 100 0 1087.04
58      652.384 3 4 0 100 0 1125.84
59      652.384 3 4 0 100 0 1165.32
60      652.384 3 4 0 100 0 1205.48
61      652.384 3 4 0 100 0 1246.32
62      652.384 3 4 0 100 0 1287.84
63      652.384 3 4 0 100 0 1330.05
64      652.384 3 4 0 100 0 1372.93
65      652.384 3 4 0 100 0 1416.49
66      652.384 3 4 0 100 0 1460.74
67      652.384 3 4 0 100 0 1505.66
68      652.384 3 4 0 100 0 1551.27
69      652.384 3 4 0 100 0 1597.55
70      652.384 3 4 0 100 0 1644.52
71      652.384 3 4 0 100 0 1692.17
72      652.384 3 4 0 100 0 1740.49
73      652.384 3 4 0 100 0 1789.5
74      652.384 3 4 0 100 0 1839.19
75      652.384 3 4 0 100 0 1889.56
76      652.384 3 4 0 100 0 1940.61
77      652.384 3 4 0 100 0 1992.35
78      652.384 3 4 0 100 0 2044.76
79      652.384 3 4 0 100 0 2097.85
80      652.384 3 4 0 100 0 2151.62
81      652.384 3 4 0 100 0 2206.08
82      652.384 3 4 0 100 0 2261.21
83      652.384 3 4 0 100 0 2317.03
84      652.384 3 4 0 100 0 2373.53
85      652.384 3 4 0 100 0 2430.7
86      652.384 3 4 0 100 0 2488.56
87      652.384 3 4 0 100 0 2547.1
88      652.384 3 4 0 100 0 2606.32
89      652.384 3 4 0 100 0 2666.22
90      652.384 3 4 0 100 0 2726.8
91      652.384 3 4 0 100 0 2788.06
92      652.384 3 4 0 100 0 2850
93      652.384 3 4 0 100 0 2912.62
94      652.384 3 4 0 100 0 2975.93
95      652.384 3 4 0 100 0 3039.91
96      652.384 3 4 0 100 0 3104.57
97      652.384 3 4 0 100 0 3169.92
98      652.384 3 4 0 100 0 3235.95
99      652.384 3 4 0 100 0 3302.65
100      652.384 3 4 0 100 0 3370.04
101      652.384 3 4 0 100 0 3438.11
102      652.384 3 4 0 100 0 3506.86
103      652.384 3 4 0 100 0 3576.28
104      652.384 3 4 0 100 0 3646.39
105      652.384 3 4 0 100 0 3717.18
106      652.384 3 4 0 100 0 3788.66
107      652.384 3 4 0 100 0 3860.81
108      652.384 3 4 0 100 0 3933.64
109      652.384 3 4 0 100 0 4007.15
110      652.384 3 4 0 100 0 4081.35
111      652.384 3 4 0 100 0 4156.22
112      652.384 3 4 0 100 0 4231.78
113      652.384 3 4 0 100 0 4308.01
114      652.384 3 4 0 100 0 4384.93
115      652.384 3 4 0 100 0 4462.53
116      652.384 3 4 0 100 0 4540.81
117      652.384 3 4 0 100 0 4619.76
118      652.384 3 4 0 100 0 4699.4
119      652.384 3 4 0 100 0 4779.72
120      652.384 3 4 0 100 0 4860.72
121      652.384 3 4 0 100 0 4942.41
122      652.384 3 4 0 100 0 5024.77
123      652.384 3 4 0 100 0 5107.81
124      652.384 3 4 0 100 0 5191.53
125      652.384 3 4 0 100 0 5275.94
126      652.384 3 4 0 100 0 5361.02
127      652.384 3 4 0 100 0 5446.79
128      652.384 3 4 0 100 0 5533.23
129      652.384 3 4 0 100 0 5620.36
130      652.384 3 4 0 100 0 5708.17
131      652.384 3 4 0 100 0 5796.66
132      652.384 3 4 0 100 0 5885.83
133      652.384 3 4 0 100 0 5975.68
134      652.384 3 4 0 100 0 6066.21
135      652.384 3 4 0 100 0 6157.42
136      652.384 3 4 0 100 0 6249.31
137      652.384 3 4 0 100 0 6341.88
138      652.384 3 4 0 100 0 6435.13
139      652.384 3 4 0 100 0 6529.07
140      652.384 3 4 0 100 0 6623.68
141      652.384 3 4 0 100 0 6718.98
142      652.384 3 4 0 100 0 6814.95
143      652.384 3 4 0 100 0 6911.61
144      652.384 3 4 0 100 0 7008.95
145      652.384 3 4 0 100 0 7106.96
146      652.384 3 4 0 100 0 7205.66
147      652.384 3 4 0 100 0 7305.04
148      652.384 3 4 0 100 0 7405.1
149      652.384 3 4 0 100 0 7505.84
150      652.384 3 4 0 100 0 7607.26
151      652.384 3 4 0 100 0 7709.36
152      652.384 3 4 0 100 0 7812.15
153      652.384 3 4 0 100 0 7915.61
154      652.384 3 4 0 100 0 8019.75
155      652.384 3 4 0 100 0 8124.58
156      652.384 3 4 0 100 0 8230.08
157      652.384 3 4 0 100 0 8336.27
158      652.384 3 4 0 100 0 8443.13
159      652.384 3 4 0 100 0 8550.68
160      652.384 3 4 0 100 0 8658.91
161      652.384 3 4 0 100 0 8767.82
162      652.384 3 4 0 100 0 8877.41
163      652.384 3 4 0 100 0 8987.68
164      652.384 3 4 0 100 0 9098.63
165      652.384 3 4 0 100 0 9210.26
166      652.384 3 4 0 100 0 9322.57
167      652.384 3 4 0 100 0 9435.56
168      652.384 3 4 0 100 0 9549.24
169      652.384 3 4 0 100 0 9663.59
170      652.384 3 4 0 100 0 9778.63
171      652.384 3 4 0 100 0 9894.34
172      652.384 3 4 0 100 0 10010.7
173      652.384 3 4 0 100 0 10127.8
174      652.384 3 4 0 100 0 10245.6
175      652.384 3 4 0 100 0 10364
176      652.384 3 4 0 100 0 10483.1
177      652.384 3 4 0 100 0 10602.9
178      652.384 3 4 0 100 0 10723.4
179      652.384 3 4 0 100 0 10844.6
180      652.384 3 4 0 100 0 10966.4
181      652.384 3 4 0 100 0 11088.9
182      652.384 3 4 0 100 0 11212.1
183      652.384 3 4 0 100 0 11336
184      652.384 3 4 0 100 0 11460.6
185      652.384 3 4 0 100 0 11585.8
186      652.384 3 4 0 100 0 11711.8
187      652.384 3 4 0 100 0 11838.4
188      652.384 3 4 0 100 0 11965.6
189      652.384 3 4 0 100 0 12093.6
190      652.384 3 4 0 100 0 12222.3
191      652.384 3 4 0 100 0 12351.6
192      652.384 3 4 0 100 0 12481.6
193      652.384 3 4 0 100 0 12612.3
194      652.384 3 4 0 100 0 12743.7
195      652.384 3 4 0 100 0 12875.7
196      652.384 3 4 0 100 0 13008.4
197      652.384 3 4 0 100 0 13141.9
198      652.384 3 4 0 100 0 13276
199      652.384 3 4 0 100 0 13410.7
200      652.384 3 4 0 100 0 13546.2
201      652.384 3 4 0 100 0 13682.3
202      652.384 3 4 0 100 0 13819.1
203      652.384 3 4 0 100 0 13956.6
204      652.384 3 4 0 100 0 14094.8
205      652.384 3 4 0 100 0 14233.7
206      652.384 3 4 0 100 0 14373.2
207      652.384 3 4 0 100 0 14513.4
208      652.384 3 4 0 100 0 14654.3
209      652.384 3 4 0 100 0 14795.9
210      652.384 3 4 0 100 0 14938.2
211      652.384 3 4 0 100 0 15081.1
212      652.384 3 4 0 100 0 15224.7
213      652.384 3 4 0 100 0 15369
214      652.384 3 4 0 100 0 15514
215      652.384 3 4 0 100 0 15659.7
216      652.384 3 4 0 100 0 15806
217      652.384 3 4 0 100 0 15953.1
218      652.384 3 4 0 100 0 16100.8
219      652.384 3 4 0 100 0 16249.2
220      652.384 3 4 0 100 0 16398.2
221      652.384 3 4 0 100 0 16548
222      652.384 3 4 0 100 0 16698.4
223      652.384 3 4 0 100 0 16849.5
224      652.384 3 4 0 100 0 17001.3
225      652.384 3 4 0 100 0 17153.8
226      652.384 3 4 0 100 0 17306.9
227      652.384 3 4 0 100 0 17460.8
228      652.384 3 4 0 100 0 17615.3
229      652.384 3 4 0 100 0 17770.5
230      652.384 3 4 0 100 0 17926.3
231      652.384 3 4 0 100 0 18082.9
232      652.384 3 4 0 100 0 18240.1
233      652.384 3 4 0 100 0 18398.1
234      652.384 3 4 0 100 0 18556.7
235      652.384 3 4 0 100 0 18715.9
236      652.384 3 4 0 100 0 18875.9
237      652.384 3 4 0 100 0 19036.5
238      652.384 3 4 0 100 0 19197.9
239      652.384 3 4 0 100 0 19359.9
240      652.384 3 4 0 100 0 19522.5
241      652.384 3 4 0 100 0 19685.9
242      652.384 3 4 0 100 0 19849.9
243      652.384 3 4 0 100 0 20014.7
244      652.384 3 4 0 100 0 20180.1
245      652.384 3 4 0 100 0 20346.2
246      652.384 3 4 0 100 0 20512.9
247      652.384 3 4 0 100 0 20680.4
248      652.384 3 4 0 100 0 20848.5
249      652.384 3 4 0 100 0 21017.3
250      652.384 3 4 0 100 0 21186.8
251      652.384 3 4 0 100 0 21357
252      652.384 3 4 0 100 0 21527.8
253      652.384 3 4 0 100 0 21699.3
254      652.384 3 4 0 100 0 21871.6
255      652.384 3 4 0 100 0 22044.5
256      652.384 3 4 0 100 0 22218
257      652.384 3 4 0 100 0 22392.3
258      652.384 3 4 0 100 0 22567.2
259      652.384 3 4 0 100 0 22742.8
260      652.384 3 4 0 100 0 22919.1
261      652.384 3 4 0 100 0 23096.1
262      652.384 3 4 0 100 0 23273.8
263      652.384 3 4 0 100 0 23452.1
264      652.384 3 4 0 100 0 23631.1
265      652.384 3 4 0 100 0 23810.8
266      652.384 3 4 0 100 0 23991.2
267      652.384 3 4 0 100 0 24172.3
268      652.384 3 4 0 100 0 24354
269      652.384 3 4 0 100 0 24536.4
270      652.384 3 4 0 100 0 24719.5
271      652.384 3 4 0 100 0 24903.3
272      652.384 3 4 0 100 0 25087.8
273      652.384 3 4 0 100 0 25272.9
274      652.384 3 4 0 100 0 25458.7
275      652.384 3 4 0 100 0 25645.2
276      652.384 3 4 0 100 0 25832.4
277      652.384 3 4 0 100 0 26020.3
278      652.384 3 4 0 100 0 26208.8
279      652.384 3 4 0 100 0 26398.1
280      652.384 3 4 0 100 0 26588
281      652.384 3 4 0 100 0 26778.6
282      652.384 3 4 0 100 0 26969.8
283      652.384 3 4 0 100 0 27161.8
284      652.384 3 4 0 100 0 27354.4
285      652.384 3 4 0 100 0 27547.7
286      652.384 3 4 0 100 0 27741.7
287      652.384 3 4 0 100 0 27936.4
288      652.384 3 4 0 100 0 28131.8
289      652.384 3 4 0 100 0 28327.8
290      652.384 3 4 0 100 0 28524.5
291      652.384 3 4 0 100 0 28721.9
292      652.384 3 4 0 100 0 28920
293      652.384 3 4 0 100 0 29118.7
294      652.384 3 4 0 100 0 29318.2
295      652.384 3 4 0 100 0 29518.3
296      652.384 3 4 0 100 0 29719.1
297      652.384 3 4 0 100 0 29920.6
298      652.384 3 4 0 100 0 30122.7
299      652.384 3 4 0 100 0 30325.6
300      652.384 3 4 0 100 0 30529.1
301      652.384 3 4 0 100 0 30733.3
302      652.384 3 4 0 100 0 30938.2
303      652.384 3 4 0 100 0 31143.8
304      652.384 3 4 0 100 0 31350
305      652.384 3 4 0 100 0 31556.9
306      652.384 3 4 0 100 0 31764.5
307      652.384 3 4 0 100 0 31972.8
308      652.384 3 4 0 100 0 32181.8
309      652.384 3 4 0 100 0 32391.4
310      652.384 3 4 0 100 0 32601.8
311      652.384 3 4 0 100 0 32812.8
312      652.384 3 4 0 100 0 33024.5
313      652.384 3 4 0 100 0 33236.8
314      652.384 3 4 0 100 0 33449.9
315      652.384 3 4 0 100 0 33663.6
316      652.384 3 4 0 100 0 33878
317      652.384 3 4 0 100 0 34093.1
318      652.384 3 4 0 100 0 34308.9
319      652.384 3 4 0 100 0 34525.4
320      652.384 3 4 0 100 0 34742.5
321      652.384 3 4 0 100 0 34960.3
322      652.384 3 4 0 100 0 35178.8
323      652.384 3 4 0 100 0 35398
324      652.384 3 4 0 100 0 35617.9
325      652.384 3 4 0 100 0 35838.4
326      652.384 3 4 0 100 0 36059.6
327      652.384 3 4 0 100 0 36281.5
328      652.384 3 4 0 100 0 36504.1
329      652.384 3 4 0 100 0 0.680678

# Format of arbitrary gradients:
#   time_shape_id of 0 means default timing (stepping with grad_raster starting at 1/2 of grad_raster)
# id amplitude amp_shape_id time_shape_id delay
# ..      Hz/m       ..         ..          us
[GRADIENTS]
68        78125 1 2 0
126       553454 5 6 0
127       553454 5 6 0

# Format of trapezoid gradients:
# id amplitude rise flat fall delay
# ..      Hz/m   us   us   us    us
[TRAP]
 1       337838 230  140 230   0
 2      -337838 230  140 230   0
 3       310497 210  180 210   0
 4      -310497 210  180 210   0
 5       292969 200  200 200   0
 6      -292969 200  200 200   0
 7       276296 190  220 190   0
 8      -276296 190  220 190   0
 9       260417 180  240 180   0
10      -260417 180  240 180   0
11       245276 170  260 170   0
12      -245276 170  260 170   0
13       230824 160  280 160   0
14      -230824 160  280 160   0
15       217014 150  300 150   0
16      -217014 150  300 150   0
17       203804 140  320 140   0
18      -203804 140  320 140   0
19       191157 130  340 130   0
20      -191157 130  340 130   0
21       182846 130  340 130   0
22      -182846 130  340 130   0
23       170898 120  360 120   0
24      -170898 120  360 120   0
25       159439 110  380 110   0
26      -159439 110  380 110   0
27       148438 100  400 100   0
28      -148438 100  400 100   0
29       140625 100  400 100   0
30      -140625 100  400 100   0
31       130208  90  420  90   0
32      -130208  90  420  90   0
33       122549  90  420  90   0
34      -122549  90  420  90   0
35       112680  80  440  80   0
36      -112680  80  440  80   0
37       103184  70  460  70   0
38      -103184  70  460  70   0
39      95813.7  70  460  70   0
40     -95813.7  70  460  70   0
41      86805.6  60  480  60   0
42     -86805.6  60  480  60   0
43      79571.8  60  480  60   0
44     -79571.8  60  480  60   0
45      71022.7  50  500  50   0
46     -71022.7  50  500  50   0
47      63920.5  50  500  50   0
48     -63920.5  50  500  50   0
49      55803.6  40  520  40   0
50     -55803.6  40  520  40   0
51      48828.1  40  520  40   0
52     -48828.1  40  520  40   0
53      41118.4  30  540  30   0
54     -41118.4  30  540  30   0
55      34265.4  30  540  30   0
56     -34265.4  30  540  30   0
57      26939.7  20  560  20   0
58     -26939.7  20  560  20   0
59      20204.7  20  560  20   0
60     -20204.7  20  560  20   0
61      13241.5  10  580  10   0
62     -13241.5  10  580  10   0
63      6620.76  10  580  10   0
64     -6620.76  10  580  10   0
65           -0  10  580  10   0
66            0  10  580  10   0
67      -424479 300    0 300   0
69       125457  90  500  90   0
70       553281 380 23880 380   0
71       108485  80  520  80   0
72       553421 380 23890 380   0
73      92069.6  70  540  70   0
74       553333 380 23910 380   0
75      76183.7  60  560  60   0
76       553473 380 23920 380   0
77      60802.1  50  580  50   0
78       553385 380 23940 380   0
79      45901.2  40  600  40   0
80       553297 380 23960 380   0
81      31458.7  30  620  30   0
82       553436 380 23970 380   0
83        17454  20  640  20   0
84       553348 380 23990 380   0
85      3867.22  10  660  10   0
86       553488 380 24000 380   0
87     -9459.01  10  660  10   0
88       553400 380 24020 380   0
89     -23130.5  20  640  20   0
90       553312 380 24040 380   0
91     -37222.6  30  620  30   0
92       553451 380 24050 380   0
93     -51755.1  40  600  40   0
94       553364 380 24070 380   0
95     -66748.9  50  580  50   0
96       553276 380 24090 380   0
97     -82226.4  60  560  60   0
98       553415 380 24100 380   0
99     -98211.4  70  540  70   0
100       553328 380 24120 380   0
101      -114729  80  520  80   0
102       553466 380 24130 380   0
103      -131807  90  500  90   0
104       553379 380 24150 380   0
105      -152096 110  460 110   0
106       553292 380 24170 380   0
107      -170756 120  440 120   0
108       553430 380 24180 380   0
109      -190094 130  420 130   0
110       553343 380 24200 380   0
111      -214114 150  380 150   0
112       553481 380 24210 380   0
113      -235402 160  360 160   0
114       553394 380 24230 380   0
115      -262675 180  320 180   0
116       553307 380 24250 380   0
117      -292221 200  280 200   0
118       553445 380 24260 380   0
119      -324336 220  240 220   0
120       553358 380 24280 380   0
121      -367728 250  180 250   0
122       553272 380 24300 380   0
123      -428338 290  100 290   0
124       553409 380 24310 380   0
125      49019.6  40 2040  40  60

# Format of ADC events:
# id num dwell delay freq phase
# ..  ..    ns    us   Hz   rad
[ADC]
1 64 50000 60 0 13682.3
2 64 50000 60 0 13819.1
3 64 50000 60 0 13956.6
4 64 50000 60 0 14094.8
5 64 50000 60 0 14233.7
6 64 50000 60 0 14373.2
7 64 50000 60 0 14513.4
8 64 50000 60 0 14654.3
9 64 50000 60 0 14795.9
10 64 50000 60 0 14938.2
11 64 50000 60 0 15081.1
12 64 50000 60 0 15224.7
13 64 50000 60 0 15369
14 64 50000 60 0 15514
15 64 50000 60 0 15659.7
16 64 50000 60 0 15806
17 64 50000 60 0 15953.1
18 64 50000 60 0 16100.8
19 64 50000 60 0 16249.2
20 64 50000 60 0 16398.2
21 64 50000 60 0 16548
22 64 50000 60 0 16698.4
23 64 50000 60 0 16849.5
24 64 50000 60 0 17001.3
25 64 50000 60 0 17153.8
26 64 50000 60 0 17306.9
27 64 50000 60 0 17460.8
28 64 50000 60 0 17615.3
29 64 50000 60 0 17770.5
30 64 50000 60 0 17926.3
31 64 50000 60 0 18082.9
32 64 50000 60 0 18240.1
33 64 50000 60 0 18398.1
34 64 50000 60 0 18556.7
35 64 50000 60 0 18715.9
36 64 50000 60 0 18875.9
37 64 50000 60 0 19036.5
38 64 50000 60 0 19197.9
39 64 50000 60 0 19359.9
40 64 50000 60 0 19522.5
41 64 50000 60 0 19685.9
42 64 50000 60 0 19849.9
43 64 50000 60 0 20014.7
44 64 50000 60 0 20180.1
45 64 50000 60 0 20346.2
46 64 50000 60 0 20512.9
47 64 50000 60 0 20680.4
48 64 50000 60 0 20848.5
49 64 50000 60 0 21017.3
50 64 50000 60 0 21186.8
51 64 50000 60 0 21357
52 64 50000 60 0 21527.8
53 64 50000 60 0 21699.3
54 64 50000 60 0 21871.6
55 64 50000 60 0 22044.5
56 64 50000 60 0 22218
57 64 50000 60 0 22392.3
58 64 50000 60 0 22567.2
59 64 50000 60 0 22742.8
60 64 50000 60 0 22919.1
61 64 50000 60 0 23096.1
62 64 50000 60 0 23273.8
63 64 50000 60 0 23452.1
64 64 50000 60 0 23631.1
65 64 50000 60 0 23810.8
66 64 50000 60 0 23991.2
67 64 50000 60 0 24172.3
68 64 50000 60 0 24354
69 64 50000 60 0 24536.4
70 64 50000 60 0 24719.5
71 64 50000 60 0 24903.3
72 64 50000 60 0 25087.8
73 64 50000 60 0 25272.9
74 64 50000 60 0 25458.7
75 64 50000 60 0 25645.2
76 64 50000 60 0 25832.4
77 64 50000 60 0 26020.3
78 64 50000 60 0 26208.8
79 64 50000 60 0 26398.1
80 64 50000 60 0 26588
81 64 50000 60 0 26778.6
82 64 50000 60 0 26969.8
83 64 50000 60 0 27161.8
84 64 50000 60 0 27354.4
85 64 50000 60 0 27547.7
86 64 50000 60 0 27741.7
87 64 50000 60 0 27936.4
88 64 50000 60 0 28131.8
89 64 50000 60 0 28327.8
90 64 50000 60 0 28524.5
91 64 50000 60 0 28721.9
92 64 50000 60 0 28920
93 64 50000 60 0 29118.7
94 64 50000 60 0 29318.2
95 64 50000 60 0 29518.3
96 64 50000 60 0 29719.1
97 64 50000 60 0 29920.6
98 64 50000 60 0 30122.7
99 64 50000 60 0 30325.6
100 64 50000 60 0 30529.1
101 64 50000 60 0 30733.3
102 64 50000 60 0 30938.2
103 64 50000 60 0 31143.8
104 64 50000 60 0 31350
105 64 50000 60 0 31556.9
106 64 50000 60 0 31764.5
107 64 50000 60 0 31972.8
108 64 50000 60 0 32181.8
109 64 50000 60 0 32391.4
110 64 50000 60 0 32601.8
111 64 50000 60 0 32812.8
112 64 50000 60 0 33024.5
113 64 50000 60 0 33236.8
114 64 50000 60 0 33449.9
115 64 50000 60 0 33663.6
116 64 50000 60 0 33878
117 64 50000 60 0 34093.1
118 64 50000 60 0 34308.9
119 64 50000 60 0 34525.4
120 64 50000 60 0 34742.5
121 64 50000 60 0 34960.3
122 64 50000 60 0 35178.8
123 64 50000 60 0 35398
124 64 50000 60 0 35617.9
125 64 50000 60 0 35838.4
126 64 50000 60 0 36059.6
127 64 50000 60 0 36281.5
128 64 50000 60 0 36504.1
129 64 50000 60 0 0.680678
130 64 50000 60 0 1.36136
131 64 50000 60 0 2.72271
132 64 50000 60 0 4.76475
