# Pulseq sequence file
# Created by PyPulseq

[VERSION]
major 1
minor 4
revision 0

[DEFINITIONS]
AdcRasterTime 1e-07 
BlockDurationRaster 1e-05 
FA 20 40 
FOV 0.256 0.256 0.016 
GradientRasterTime 1e-05 
Name vfagre3d 
RadiofrequencyRasterTime 1e-06 
ReconMatrixSize 128 128 8 
SliceThickness 0.016 
TE 0.006 
TR 0.5 
TotalDuration 1280 

# Format of blocks:
# NUM DUR RF  GX  GY  GZ  ADC  EXT
[BLOCKS]
    1   0   0   0   0   0  0  1
    2   0   0   0   0   0  0  2
    3   0   0   0   0   0  0  3
    4   0   0   0   0   0  0  4
    5 234   1   0   0   6  0  0
    6  46   0   0   0   0  0  0
    7 112   0   2   7   4  0  0
    8 650   0   3   0   0  1  0
    9 1291   0   8   8   9  0  0
   10 1163   2   1   1   1  0  0
   11 46504   0   0   0   0  0  0
   12   0   0   0   0   0  0  5
   13 234   3   0   0   6  0  0
   14  46   0   0   0   0  0  0
   15 112   0   2  10   4  0  0
   16 650   0   3   0   0  2  0
   17 1291   0   8   8   9  0  0
   18 1163   4   1   1   1  0  0
   19 46504   0   0   0   0  0  0
   20   0   0   0   0   0  0  6
   21 234   5   0   0   6  0  0
   22  46   0   0   0   0  0  0
   23 112   0   2  11   4  0  0
   24 650   0   3   0   0  3  0
   25 1291   0   8   8   9  0  0
   26 1163   6   1   1   1  0  0
   27 46504   0   0   0   0  0  0
   28   0   0   0   0   0  0  7
   29 234   7   0   0   6  0  0
   30  46   0   0   0   0  0  0
   31 112   0   2  12   4  0  0
   32 650   0   3   0   0  4  0
   33 1291   0   8   8   9  0  0
   34 1163   8   1   1   1  0  0
   35 46504   0   0   0   0  0  0
   36   0   0   0   0   0  0  8
   37 234   9   0   0   6  0  0
   38  46   0   0   0   0  0  0
   39 112   0   2  13   4  0  0
   40 650   0   3   0   0  5  0
   41 1291   0   8   8   9  0  0
   42 1163  10   1   1   1  0  0
   43 46504   0   0   0   0  0  0
   44   0   0   0   0   0  0  9
   45 234  11   0   0   6  0  0
   46  46   0   0   0   0  0  0
   47 112   0   2  14   4  0  0
   48 650   0   3   0   0  6  0
   49 1291   0   8   8   9  0  0
   50 1163  12   1   1   1  0  0
   51 46504   0   0   0   0  0  0
   52   0   0   0   0   0  0 10
   53 234  13   0   0   6  0  0
   54  46   0   0   0   0  0  0
   55 112   0   2  15   4  0  0
   56 650   0   3   0   0  7  0
   57 1291   0   8   8   9  0  0
   58 1163  14   1   1   1  0  0
   59 46504   0   0   0   0  0  0
   60   0   0   0   0   0  0 11
   61 234  15   0   0   6  0  0
   62  46   0   0   0   0  0  0
   63 112   0   2  16   4  0  0
   64 650   0   3   0   0  8  0
   65 1291   0   8   8   9  0  0
   66 1163  16   1   1   1  0  0
   67 46504   0   0   0   0  0  0
   68   0   0   0   0   0  0 12
   69 234  17   0   0   6  0  0
   70  46   0   0   0   0  0  0
   71 112   0   2  17   4  0  0
   72 650   0   3   0   0  9  0
   73 1291   0   8   8   9  0  0
   74 1163  18   1   1   1  0  0
   75 46504   0   0   0   0  0  0
   76   0   0   0   0   0  0 13
   77 234  19   0   0   6  0  0
   78  46   0   0   0   0  0  0
   79 112   0   2  18   4  0  0
   80 650   0   3   0   0 10  0
   81 1291   0   8   8   9  0  0
   82 1163  20   1   1   1  0  0
   83 46504   0   0   0   0  0  0
   84   0   0   0   0   0  0 14
   85 234  21   0   0   6  0  0
   86  46   0   0   0   0  0  0
   87 112   0   2  19   4  0  0
   88 650   0   3   0   0 11  0
   89 1291   0   8   8   9  0  0
   90 1163  22   1   1   1  0  0
   91 46504   0   0   0   0  0  0
   92   0   0   0   0   0  0 15
   93 234  23   0   0   6  0  0
   94  46   0   0   0   0  0  0
   95 112   0   2  20   4  0  0
   96 650   0   3   0   0 12  0
   97 1291   0   8   8   9  0  0
   98 1163  24   1   1   1  0  0
   99 46504   0   0   0   0  0  0
  100   0   0   0   0   0  0 16
  101 234  25   0   0   6  0  0
  102  46   0   0   0   0  0  0
  103 112   0   2  21   4  0  0
  104 650   0   3   0   0 13  0
  105 1291   0   8   8   9  0  0
  106 1163  26   1   1   1  0  0
  107 46504   0   0   0   0  0  0
  108   0   0   0   0   0  0 17
  109 234  27   0   0   6  0  0
  110  46   0   0   0   0  0  0
  111 112   0   2  22   4  0  0
  112 650   0   3   0   0 14  0
  113 1291   0   8   8   9  0  0
  114 1163  28   1   1   1  0  0
  115 46504   0   0   0   0  0  0
  116   0   0   0   0   0  0 18
  117 234  29   0   0   6  0  0
  118  46   0   0   0   0  0  0
  119 112   0   2  23   4  0  0
  120 650   0   3   0   0 15  0
  121 1291   0   8   8   9  0  0
  122 1163  30   1   1   1  0  0
  123 46504   0   0   0   0  0  0
  124   0   0   0   0   0  0 19
  125 234  31   0   0   6  0  0
  126  46   0   0   0   0  0  0
  127 112   0   2  24   4  0  0
  128 650   0   3   0   0 16  0
  129 1291   0   8   8   9  0  0
  130 1163  32   1   1   1  0  0
  131 46504   0   0   0   0  0  0
  132   0   0   0   0   0  0 20
  133 234  33   0   0   6  0  0
  134  46   0   0   0   0  0  0
  135 112   0   2  25   4  0  0
  136 650   0   3   0   0 17  0
  137 1291   0   8   8   9  0  0
  138 1163  34   1   1   1  0  0
  139 46504   0   0   0   0  0  0
  140   0   0   0   0   0  0 21
  141 234  35   0   0   6  0  0
  142  46   0   0   0   0  0  0
  143 112   0   2  26   4  0  0
  144 650   0   3   0   0 18  0
  145 1291   0   8   8   9  0  0
  146 1163  36   1   1   1  0  0
  147 46504   0   0   0   0  0  0
  148   0   0   0   0   0  0 22
  149 234  37   0   0   6  0  0
  150  46   0   0   0   0  0  0
  151 112   0   2  27   4  0  0
  152 650   0   3   0   0 19  0
  153 1291   0   8   8   9  0  0
  154 1163  38   1   1   1  0  0
  155 46504   0   0   0   0  0  0
  156   0   0   0   0   0  0 23
  157 234  39   0   0   6  0  0
  158  46   0   0   0   0  0  0
  159 112   0   2  28   4  0  0
  160 650   0   3   0   0 20  0
  161 1291   0   8   8   9  0  0
  162 1163  40   1   1   1  0  0
  163 46504   0   0   0   0  0  0
  164   0   0   0   0   0  0 24
  165 234  41   0   0   6  0  0
  166  46   0   0   0   0  0  0
  167 112   0   2  29   4  0  0
  168 650   0   3   0   0 21  0
  169 1291   0   8   8   9  0  0
  170 1163  42   1   1   1  0  0
  171 46504   0   0   0   0  0  0
  172   0   0   0   0   0  0 25
  173 234  43   0   0   6  0  0
  174  46   0   0   0   0  0  0
  175 112   0   2  30   4  0  0
  176 650   0   3   0   0 22  0
  177 1291   0   8   8   9  0  0
  178 1163  44   1   1   1  0  0
  179 46504   0   0   0   0  0  0
  180   0   0   0   0   0  0 26
  181 234  45   0   0   6  0  0
  182  46   0   0   0   0  0  0
  183 112   0   2  31   4  0  0
  184 650   0   3   0   0 23  0
  185 1291   0   8   8   9  0  0
  186 1163  46   1   1   1  0  0
  187 46504   0   0   0   0  0  0
  188   0   0   0   0   0  0 27
  189 234  47   0   0   6  0  0
  190  46   0   0   0   0  0  0
  191 112   0   2  32   4  0  0
  192 650   0   3   0   0 24  0
  193 1291   0   8   8   9  0  0
  194 1163  48   1   1   1  0  0
  195 46504   0   0   0   0  0  0
  196   0   0   0   0   0  0 28
  197 234  49   0   0   6  0  0
  198  46   0   0   0   0  0  0
  199 112   0   2  33   4  0  0
  200 650   0   3   0   0 25  0
  201 1291   0   8   8   9  0  0
  202 1163  50   1   1   1  0  0
  203 46504   0   0   0   0  0  0
  204   0   0   0   0   0  0 29
  205 234  51   0   0   6  0  0
  206  46   0   0   0   0  0  0
  207 112   0   2  34   4  0  0
  208 650   0   3   0   0 26  0
  209 1291   0   8   8   9  0  0
  210 1163  52   1   1   1  0  0
  211 46504   0   0   0   0  0  0
  212   0   0   0   0   0  0 30
  213 234  53   0   0   6  0  0
  214  46   0   0   0   0  0  0
  215 112   0   2  35   4  0  0
  216 650   0   3   0   0 27  0
  217 1291   0   8   8   9  0  0
  218 1163  54   1   1   1  0  0
  219 46504   0   0   0   0  0  0
  220   0   0   0   0   0  0 31
  221 234  55   0   0   6  0  0
  222  46   0   0   0   0  0  0
  223 112   0   2  36   4  0  0
  224 650   0   3   0   0 28  0
  225 1291   0   8   8   9  0  0
  226 1163  56   1   1   1  0  0
  227 46504   0   0   0   0  0  0
  228   0   0   0   0   0  0 32
  229 234  57   0   0   6  0  0
  230  46   0   0   0   0  0  0
  231 112   0   2  37   4  0  0
  232 650   0   3   0   0 29  0
  233 1291   0   8   8   9  0  0
  234 1163  58   1   1   1  0  0
  235 46504   0   0   0   0  0  0
  236   0   0   0   0   0  0 33
  237 234  59   0   0   6  0  0
  238  46   0   0   0   0  0  0
  239 112   0   2  38   4  0  0
  240 650   0   3   0   0 30  0
  241 1291   0   8   8   9  0  0
  242 1163  60   1   1   1  0  0
  243 46504   0   0   0   0  0  0
  244   0   0   0   0   0  0 34
  245 234  61   0   0   6  0  0
  246  46   0   0   0   0  0  0
  247 112   0   2  39   4  0  0
  248 650   0   3   0   0 31  0
  249 1291   0   8   8   9  0  0
  250 1163  62   1   1   1  0  0
  251 46504   0   0   0   0  0  0
  252   0   0   0   0   0  0 35
  253 234  63   0   0   6  0  0
  254  46   0   0   0   0  0  0
  255 112   0   2  40   4  0  0
  256 650   0   3   0   0 32  0
  257 1291   0   8   8   9  0  0
  258 1163  64   1   1   1  0  0
  259 46504   0   0   0   0  0  0
  260   0   0   0   0   0  0 36
  261 234  65   0   0   6  0  0
  262  46   0   0   0   0  0  0
  263 112   0   2  41   4  0  0
  264 650   0   3   0   0 33  0
  265 1291   0   8   8   9  0  0
  266 1163  66   1   1   1  0  0
  267 46504   0   0   0   0  0  0
  268   0   0   0   0   0  0 37
  269 234  67   0   0   6  0  0
  270  46   0   0   0   0  0  0
  271 112   0   2  42   4  0  0
  272 650   0   3   0   0 34  0
  273 1291   0   8   8   9  0  0
  274 1163  68   1   1   1  0  0
  275 46504   0   0   0   0  0  0
  276   0   0   0   0   0  0 38
  277 234  69   0   0   6  0  0
  278  46   0   0   0   0  0  0
  279 112   0   2  43   4  0  0
  280 650   0   3   0   0 35  0
  281 1291   0   8   8   9  0  0
  282 1163  70   1   1   1  0  0
  283 46504   0   0   0   0  0  0
  284   0   0   0   0   0  0 39
  285 234  71   0   0   6  0  0
  286  46   0   0   0   0  0  0
  287 112   0   2  44   4  0  0
  288 650   0   3   0   0 36  0
  289 1291   0   8   8   9  0  0
  290 1163  72   1   1   1  0  0
  291 46504   0   0   0   0  0  0
  292   0   0   0   0   0  0 40
  293 234  73   0   0   6  0  0
  294  46   0   0   0   0  0  0
  295 112   0   2  45   4  0  0
[RF]
1      217.461 1 2 3 150 0 4.08407
2        425.7 4 5 6 100 0 4.08407
3      217.461 1 2 3 150 0 8.16814
4        425.7 4 5 6 100 0 8.16814
5      217.461 1 2 3 150 0 14.2942
6        425.7 4 5 6 100 0 14.2942
7      217.461 1 2 3 150 0 22.4624
8        425.7 4 5 6 100 0 22.4624
9      217.461 1 2 3 150 0 32.6726
10        425.7 4 5 6 100 0 32.6726
11      217.461 1 2 3 150 0 44.9248
12        425.7 4 5 6 100 0 44.9248
13      217.461 1 2 3 150 0 59.219
14        425.7 4 5 6 100 0 59.219
15      217.461 1 2 3 150 0 75.5553
16        425.7 4 5 6 100 0 75.5553
17      217.461 1 2 3 150 0 93.9336
18        425.7 4 5 6 100 0 93.9336
19      217.461 1 2 3 150 0 114.354
20        425.7 4 5 6 100 0 114.354
21      217.461 1 2 3 150 0 136.816
22        425.7 4 5 6 100 0 136.816
23      217.461 1 2 3 150 0 161.321
24        425.7 4 5 6 100 0 161.321
25      217.461 1 2 3 150 0 187.867
26        425.7 4 5 6 100 0 187.867
27      217.461 1 2 3 150 0 216.456
28        425.7 4 5 6 100 0 216.456
29      217.461 1 2 3 150 0 247.086
30        425.7 4 5 6 100 0 247.086
31      217.461 1 2 3 150 0 279.759
32        425.7 4 5 6 100 0 279.759
33      217.461 1 2 3 150 0 314.473
34        425.7 4 5 6 100 0 314.473
35      217.461 1 2 3 150 0 351.23
36        425.7 4 5 6 100 0 351.23
37      217.461 1 2 3 150 0 390.029
38        425.7 4 5 6 100 0 390.029
39      217.461 1 2 3 150 0 430.869
40        425.7 4 5 6 100 0 430.869
41      217.461 1 2 3 150 0 473.752
42        425.7 4 5 6 100 0 473.752
43      217.461 1 2 3 150 0 518.677
44        425.7 4 5 6 100 0 518.677
45      217.461 1 2 3 150 0 565.644
46        425.7 4 5 6 100 0 565.644
47      217.461 1 2 3 150 0 614.653
48        425.7 4 5 6 100 0 614.653
49      217.461 1 2 3 150 0 665.703
50        425.7 4 5 6 100 0 665.703
51      217.461 1 2 3 150 0 718.796
52        425.7 4 5 6 100 0 718.796
53      217.461 1 2 3 150 0 773.931
54        425.7 4 5 6 100 0 773.931
55      217.461 1 2 3 150 0 831.108
56        425.7 4 5 6 100 0 831.108
57      217.461 1 2 3 150 0 890.327
58        425.7 4 5 6 100 0 890.327
59      217.461 1 2 3 150 0 951.588
60        425.7 4 5 6 100 0 951.588
61      217.461 1 2 3 150 0 1014.89
62        425.7 4 5 6 100 0 1014.89
63      217.461 1 2 3 150 0 1080.24
64        425.7 4 5 6 100 0 1080.24
65      217.461 1 2 3 150 0 1147.62
66        425.7 4 5 6 100 0 1147.62
67      217.461 1 2 3 150 0 1217.05
68        425.7 4 5 6 100 0 1217.05
69      217.461 1 2 3 150 0 1288.52
70        425.7 4 5 6 100 0 1288.52
71      217.461 1 2 3 150 0 1362.04
72        425.7 4 5 6 100 0 1362.04
73      217.461 1 2 3 150 0 1437.59
74        425.7 4 5 6 100 0 1437.59
75      217.461 1 2 3 150 0 1515.19
76        425.7 4 5 6 100 0 1515.19
77      217.461 1 2 3 150 0 1594.83
78        425.7 4 5 6 100 0 1594.83
79      217.461 1 2 3 150 0 1676.51
80        425.7 4 5 6 100 0 1676.51
81      217.461 1 2 3 150 0 1760.23
82        425.7 4 5 6 100 0 1760.23
83      217.461 1 2 3 150 0 1846
84        425.7 4 5 6 100 0 1846
85      217.461 1 2 3 150 0 1933.81
86        425.7 4 5 6 100 0 1933.81
87      217.461 1 2 3 150 0 2023.66
88        425.7 4 5 6 100 0 2023.66
89      217.461 1 2 3 150 0 2115.55
90        425.7 4 5 6 100 0 2115.55
91      217.461 1 2 3 150 0 2209.48
92        425.7 4 5 6 100 0 2209.48
93      217.461 1 2 3 150 0 2305.46
94        425.7 4 5 6 100 0 2305.46
95      217.461 1 2 3 150 0 2403.48
96        425.7 4 5 6 100 0 2403.48
97      217.461 1 2 3 150 0 2503.54
98        425.7 4 5 6 100 0 2503.54
99      217.461 1 2 3 150 0 2605.64
100        425.7 4 5 6 100 0 2605.64
101      217.461 1 2 3 150 0 2709.78
102        425.7 4 5 6 100 0 2709.78
103      217.461 1 2 3 150 0 2815.97
104        425.7 4 5 6 100 0 2815.97
105      217.461 1 2 3 150 0 2924.19
106        425.7 4 5 6 100 0 2924.19
107      217.461 1 2 3 150 0 3034.46
108        425.7 4 5 6 100 0 3034.46
109      217.461 1 2 3 150 0 3146.78
110        425.7 4 5 6 100 0 3146.78
111      217.461 1 2 3 150 0 3261.13
112        425.7 4 5 6 100 0 3261.13
113      217.461 1 2 3 150 0 3377.53
114        425.7 4 5 6 100 0 3377.53
115      217.461 1 2 3 150 0 3495.96
116        425.7 4 5 6 100 0 3495.96
117      217.461 1 2 3 150 0 3616.44
118        425.7 4 5 6 100 0 3616.44
119      217.461 1 2 3 150 0 3738.97
120        425.7 4 5 6 100 0 3738.97
121      217.461 1 2 3 150 0 3863.53
122        425.7 4 5 6 100 0 3863.53
123      217.461 1 2 3 150 0 3990.14
124        425.7 4 5 6 100 0 3990.14
125      217.461 1 2 3 150 0 4118.79
126        425.7 4 5 6 100 0 4118.79
127      217.461 1 2 3 150 0 4249.48
128        425.7 4 5 6 100 0 4249.48
129      217.461 1 2 3 150 0 4382.21
130        425.7 4 5 6 100 0 4382.21
131      217.461 1 2 3 150 0 4516.98
132        425.7 4 5 6 100 0 4516.98
133      217.461 1 2 3 150 0 4653.8
134        425.7 4 5 6 100 0 4653.8
135      217.461 1 2 3 150 0 4792.66
136        425.7 4 5 6 100 0 4792.66
137      217.461 1 2 3 150 0 4933.56
138        425.7 4 5 6 100 0 4933.56
139      217.461 1 2 3 150 0 5076.5
140        425.7 4 5 6 100 0 5076.5
141      217.461 1 2 3 150 0 5221.48
142        425.7 4 5 6 100 0 5221.48
143      217.461 1 2 3 150 0 5368.51
144        425.7 4 5 6 100 0 5368.51
145      217.461 1 2 3 150 0 5517.58
146        425.7 4 5 6 100 0 5517.58
147      217.461 1 2 3 150 0 5668.69
148        425.7 4 5 6 100 0 5668.69
149      217.461 1 2 3 150 0 5821.84
150        425.7 4 5 6 100 0 5821.84
151      217.461 1 2 3 150 0 5977.04
152        425.7 4 5 6 100 0 5977.04
153      217.461 1 2 3 150 0 6134.27
154        425.7 4 5 6 100 0 6134.27
155      217.461 1 2 3 150 0 6293.55
156        425.7 4 5 6 100 0 6293.55
157      217.461 1 2 3 150 0 6454.87
158        425.7 4 5 6 100 0 6454.87
159      217.461 1 2 3 150 0 6618.24
160        425.7 4 5 6 100 0 6618.24
161      217.461 1 2 3 150 0 6783.64
162        425.7 4 5 6 100 0 6783.64
163      217.461 1 2 3 150 0 6951.09
164        425.7 4 5 6 100 0 6951.09
165      217.461 1 2 3 150 0 7120.58
166        425.7 4 5 6 100 0 7120.58
167      217.461 1 2 3 150 0 7292.11
168        425.7 4 5 6 100 0 7292.11
169      217.461 1 2 3 150 0 7465.68
170        425.7 4 5 6 100 0 7465.68
171      217.461 1 2 3 150 0 7641.3
172        425.7 4 5 6 100 0 7641.3
173      217.461 1 2 3 150 0 7818.95
174        425.7 4 5 6 100 0 7818.95
175      217.461 1 2 3 150 0 7998.65
176        425.7 4 5 6 100 0 7998.65
177      217.461 1 2 3 150 0 8180.39
178        425.7 4 5 6 100 0 8180.39
179      217.461 1 2 3 150 0 8364.18
180        425.7 4 5 6 100 0 8364.18
181      217.461 1 2 3 150 0 8550
182        425.7 4 5 6 100 0 8550
183      217.461 1 2 3 150 0 8737.87
184        425.7 4 5 6 100 0 8737.87
185      217.461 1 2 3 150 0 8927.78
186        425.7 4 5 6 100 0 8927.78
187      217.461 1 2 3 150 0 9119.73
188        425.7 4 5 6 100 0 9119.73
189      217.461 1 2 3 150 0 9313.72
190        425.7 4 5 6 100 0 9313.72
191      217.461 1 2 3 150 0 9509.76
192        425.7 4 5 6 100 0 9509.76
193      217.461 1 2 3 150 0 9707.84
194        425.7 4 5 6 100 0 9707.84
195      217.461 1 2 3 150 0 9907.95
196        425.7 4 5 6 100 0 9907.95
197      217.461 1 2 3 150 0 10110.1
198        425.7 4 5 6 100 0 10110.1
199      217.461 1 2 3 150 0 10314.3
200        425.7 4 5 6 100 0 10314.3
201      217.461 1 2 3 150 0 10520.6
202        425.7 4 5 6 100 0 10520.6
203      217.461 1 2 3 150 0 10728.9
204        425.7 4 5 6 100 0 10728.9
205      217.461 1 2 3 150 0 10939.2
206        425.7 4 5 6 100 0 10939.2
207      217.461 1 2 3 150 0 11151.6
208        425.7 4 5 6 100 0 11151.6
209      217.461 1 2 3 150 0 11366
210        425.7 4 5 6 100 0 11366
211      217.461 1 2 3 150 0 11582.4
212        425.7 4 5 6 100 0 11582.4
213      217.461 1 2 3 150 0 11800.9
214        425.7 4 5 6 100 0 11800.9
215      217.461 1 2 3 150 0 12021.5
216        425.7 4 5 6 100 0 12021.5
217      217.461 1 2 3 150 0 12244
218        425.7 4 5 6 100 0 12244
219      217.461 1 2 3 150 0 12468.7
220        425.7 4 5 6 100 0 12468.7
221      217.461 1 2 3 150 0 12695.3
222        425.7 4 5 6 100 0 12695.3
223      217.461 1 2 3 150 0 12924
224        425.7 4 5 6 100 0 12924
225      217.461 1 2 3 150 0 13154.8
226        425.7 4 5 6 100 0 13154.8
227      217.461 1 2 3 150 0 13387.6
228        425.7 4 5 6 100 0 13387.6
229      217.461 1 2 3 150 0 13622.4
230        425.7 4 5 6 100 0 13622.4
231      217.461 1 2 3 150 0 13859.3
232        425.7 4 5 6 100 0 13859.3
233      217.461 1 2 3 150 0 14098.2
234        425.7 4 5 6 100 0 14098.2
235      217.461 1 2 3 150 0 14339.2
236        425.7 4 5 6 100 0 14339.2
237      217.461 1 2 3 150 0 14582.2
238        425.7 4 5 6 100 0 14582.2
239      217.461 1 2 3 150 0 14827.2
240        425.7 4 5 6 100 0 14827.2
241      217.461 1 2 3 150 0 15074.3
242        425.7 4 5 6 100 0 15074.3
243      217.461 1 2 3 150 0 15323.4
244        425.7 4 5 6 100 0 15323.4
245      217.461 1 2 3 150 0 15574.6
246        425.7 4 5 6 100 0 15574.6
247      217.461 1 2 3 150 0 15827.8
248        425.7 4 5 6 100 0 15827.8
249      217.461 1 2 3 150 0 16083.1
250        425.7 4 5 6 100 0 16083.1
251      217.461 1 2 3 150 0 16340.4
252        425.7 4 5 6 100 0 16340.4
253      217.461 1 2 3 150 0 16599.7
254        425.7 4 5 6 100 0 16599.7
255      217.461 1 2 3 150 0 16861.1
256        425.7 4 5 6 100 0 16861.1
257      434.923 1 2 3 100 0 4.08407
258      434.923 1 2 3 100 0 8.16814
259      434.923 1 2 3 100 0 14.2942
260      434.923 1 2 3 100 0 22.4624
261      434.923 1 2 3 100 0 32.6726
262      434.923 1 2 3 100 0 44.9248
263      434.923 1 2 3 100 0 59.219
264      434.923 1 2 3 100 0 75.5553
265      434.923 1 2 3 100 0 93.9336
266      434.923 1 2 3 100 0 114.354
267      434.923 1 2 3 100 0 136.816
268      434.923 1 2 3 100 0 161.321
269      434.923 1 2 3 100 0 187.867
270      434.923 1 2 3 100 0 216.456
271      434.923 1 2 3 100 0 247.086
272      434.923 1 2 3 100 0 279.759
273      434.923 1 2 3 100 0 314.473
274      434.923 1 2 3 100 0 351.23
275      434.923 1 2 3 100 0 390.029
276      434.923 1 2 3 100 0 430.869
277      434.923 1 2 3 100 0 473.752
278      434.923 1 2 3 100 0 518.677
279      434.923 1 2 3 100 0 565.644
280      434.923 1 2 3 100 0 614.653
281      434.923 1 2 3 100 0 665.703
282      434.923 1 2 3 100 0 718.796
283      434.923 1 2 3 100 0 773.931
284      434.923 1 2 3 100 0 831.108
285      434.923 1 2 3 100 0 890.327
286      434.923 1 2 3 100 0 951.588
287      434.923 1 2 3 100 0 1014.89
288      434.923 1 2 3 100 0 1080.24
289      434.923 1 2 3 100 0 1147.62
290      434.923 1 2 3 100 0 1217.05
291      434.923 1 2 3 100 0 1288.52
292      434.923 1 2 3 100 0 1362.04
293      434.923 1 2 3 100 0 1437.59
294      434.923 1 2 3 100 0 1515.19
295      434.923 1 2 3 100 0 1594.83
296      434.923 1 2 3 100 0 1676.51
297      434.923 1 2 3 100 0 1760.23
298      434.923 1 2 3 100 0 1846
299      434.923 1 2 3 100 0 1933.81
300      434.923 1 2 3 100 0 2023.66
301      434.923 1 2 3 100 0 2115.55
302      434.923 1 2 3 100 0 2209.48
303      434.923 1 2 3 100 0 2305.46
304      434.923 1 2 3 100 0 2403.48
305      434.923 1 2 3 100 0 2503.54
306      434.923 1 2 3 100 0 2605.64
307      434.923 1 2 3 100 0 2709.78
308      434.923 1 2 3 100 0 2815.97
309      434.923 1 2 3 100 0 2924.19
310      434.923 1 2 3 100 0 3034.46
311      434.923 1 2 3 100 0 3146.78
312      434.923 1 2 3 100 0 3261.13
313      434.923 1 2 3 100 0 3377.53
314      434.923 1 2 3 100 0 3495.96
315      434.923 1 2 3 100 0 3616.44
316      434.923 1 2 3 100 0 3738.97
317      434.923 1 2 3 100 0 3863.53
318      434.923 1 2 3 100 0 3990.14
319      434.923 1 2 3 100 0 4118.79
320      434.923 1 2 3 100 0 4249.48
321      434.923 1 2 3 100 0 4382.21
322      434.923 1 2 3 100 0 4516.98
323      434.923 1 2 3 100 0 4653.8
324      434.923 1 2 3 100 0 4792.66
325      434.923 1 2 3 100 0 4933.56
326      434.923 1 2 3 100 0 5076.5
327      434.923 1 2 3 100 0 5221.48
328      434.923 1 2 3 100 0 5368.51
329      434.923 1 2 3 100 0 5517.58
330      434.923 1 2 3 100 0 5668.69
331      434.923 1 2 3 100 0 5821.84
332      434.923 1 2 3 100 0 5977.04
333      434.923 1 2 3 100 0 6134.27
334      434.923 1 2 3 100 0 6293.55
335      434.923 1 2 3 100 0 6454.87
336      434.923 1 2 3 100 0 6618.24
337      434.923 1 2 3 100 0 6783.64
338      434.923 1 2 3 100 0 6951.09
339      434.923 1 2 3 100 0 7120.58
340      434.923 1 2 3 100 0 7292.11
341      434.923 1 2 3 100 0 7465.68
342      434.923 1 2 3 100 0 7641.3
343      434.923 1 2 3 100 0 7818.95
344      434.923 1 2 3 100 0 7998.65
345      434.923 1 2 3 100 0 8180.39
346      434.923 1 2 3 100 0 8364.18
347      434.923 1 2 3 100 0 8550
348      434.923 1 2 3 100 0 8737.87
349      434.923 1 2 3 100 0 8927.78
350      434.923 1 2 3 100 0 9119.73
351      434.923 1 2 3 100 0 9313.72
352      434.923 1 2 3 100 0 9509.76
353      434.923 1 2 3 100 0 9707.84
354      434.923 1 2 3 100 0 9907.95
355      434.923 1 2 3 100 0 10110.1
356      434.923 1 2 3 100 0 10314.3
357      434.923 1 2 3 100 0 10520.6
358      434.923 1 2 3 100 0 10728.9
359      434.923 1 2 3 100 0 10939.2
360      434.923 1 2 3 100 0 11151.6
361      434.923 1 2 3 100 0 11366
362      434.923 1 2 3 100 0 11582.4
363      434.923 1 2 3 100 0 11800.9
364      434.923 1 2 3 100 0 12021.5
365      434.923 1 2 3 100 0 12244
366      434.923 1 2 3 100 0 12468.7
367      434.923 1 2 3 100 0 12695.3
368      434.923 1 2 3 100 0 12924
369      434.923 1 2 3 100 0 13154.8
370      434.923 1 2 3 100 0 13387.6
371      434.923 1 2 3 100 0 13622.4
372      434.923 1 2 3 100 0 13859.3
373      434.923 1 2 3 100 0 14098.2
374      434.923 1 2 3 100 0 14339.2
375      434.923 1 2 3 100 0 14582.2
376      434.923 1 2 3 100 0 14827.2
377      434.923 1 2 3 100 0 15074.3
378      434.923 1 2 3 100 0 15323.4
379      434.923 1 2 3 100 0 15574.6
380      434.923 1 2 3 100 0 15827.8
381      434.923 1 2 3 100 0 16083.1
382      434.923 1 2 3 100 0 16340.4
383      434.923 1 2 3 100 0 16599.7
384      434.923 1 2 3 100 0 16861.1

# Format of trapezoid gradients:
# id amplitude rise flat fall delay
# ..      Hz/m   us   us   us    us
[TRAP]
 1       636943 380 2760 380 8110
 2      -629883 370   30 370   0
 3        78125  50 6400  50   0
 4     -16560.7  10 1100  10   0
 5      -260417 160  800 160   0
 6       245098 150 2040 150   0
 7       595238 350   70 350   0
 8       636943 380 2760 380   0
 9       638468 380 12150 380   0
10       559304 330  110 330   0
11       526495 310  150 310   0
12       506981 300  170 300   0
13       488281 290  190 290   0
14       470344 280  210 280   0
15       453125 270  230 270   0
16       436581 260  250 260   0
17       420673 250  270 250   0
18       405366 240  290 240   0
19       390625 230  310 230   0
20       383391 230  310 230   0
21       369318 220  330 220   0
22       355748 210  350 210   0
23       348772 210  350 210   0
24       335800 200  370 200   0
25       323276 190  390 190   0
26       316541 190  390 190   0
27       304555 180  410 180   0
28       297934 180  410 180   0
29       286458 170  430 170   0
30       279948 170  430 170   0
31       268955 160  450 160   0
32       262551 160  450 160   0
33       252016 150  470 150   0
34       245716 150  470 150   0
35       235615 140  490 140   0
36       229415 140  490 140   0
37       219727 130  510 130   0
38       213623 130  510 130   0
39       204327 120  530 120   0
40       198317 120  530 120   0
41       192308 120  530 120   0
42       183475 110  550 110   0
43       177557 110  550 110   0
44       169076 100  570 100   0
45       163246 100  570 100   0
46       157416 100  570 100   0
47       149357  90  590  90   0
48       143612  90  590  90   0
49       135870  80  610  80   0
50       130208  80  610  80   0
51       124547  80  610  80   0
52       117187  70  630  70   0
53       111607  70  630  70   0
54       106027  70  630  70   0
55      99031.7  60  650  60   0
56      93529.9  60  650  60   0
57      88028.2  60  650  60   0
58      81380.2  50  670  50   0
59      75954.9  50  670  50   0
60      70529.5  50  670  50   0
61      64212.3  40  690  40   0
62      58861.3  40  690  40   0
63      53510.3  40  690  40   0
64      47508.4  30  710  30   0
65      42229.7  30  710  30   0
66        36951  30  710  30   0
67        31250  20  730  20   0
68      26041.7  20  730  20   0
69      20833.3  20  730  20   0
70      15419.4  10  750  10   0
71      10279.6  10  750  10   0
72       5139.8  10  750  10   0
73           -0  10  750  10   0
74      -5139.8  10  750  10   0
75     -10279.6  10  750  10   0
76     -15419.4  10  750  10   0
77     -20833.3  20  730  20   0
78     -26041.7  20  730  20   0
79       -31250  20  730  20   0
80       -36951  30  710  30   0
81     -42229.7  30  710  30   0
82     -47508.4  30  710  30   0
83     -53510.3  40  690  40   0
84     -58861.3  40  690  40   0
85     -64212.3  40  690  40   0
86     -70529.5  50  670  50   0
87     -75954.9  50  670  50   0
88     -81380.2  50  670  50   0
89     -88028.2  60  650  60   0
90     -93529.9  60  650  60   0
91     -99031.7  60  650  60   0
92      -106027  70  630  70   0
93      -111607  70  630  70   0
94      -117187  70  630  70   0
95      -124547  80  610  80   0
96      -130208  80  610  80   0
97      -135870  80  610  80   0
98      -143612  90  590  90   0
99      -149357  90  590  90   0
100      -157416 100  570 100   0
101      -163246 100  570 100   0
102      -169076 100  570 100   0
103      -177557 110  550 110   0
104      -183475 110  550 110   0
105      -192308 120  530 120   0
106      -198317 120  530 120   0
107      -204327 120  530 120   0
108      -213623 130  510 130   0
109      -219727 130  510 130   0
110      -229415 140  490 140   0
111      -235615 140  490 140   0
112      -245716 150  470 150   0
113      -252016 150  470 150   0
114      -262551 160  450 160   0
115      -268955 160  450 160   0
116      -279948 170  430 170   0
117      -286458 170  430 170   0
118      -297934 180  410 180   0
119      -304555 180  410 180   0
120      -316541 190  390 190   0
121      -323276 190  390 190   0
122      -335800 200  370 200   0
123      -348772 210  350 210   0
124      -355748 210  350 210   0
125      -369318 220  330 220   0
126      -383391 230  310 230   0
127      -390625 230  310 230   0
128      -405366 240  290 240   0
129      -420673 250  270 250   0
130      -436581 260  250 260   0
131      -453125 270  230 270   0
132      -470344 280  210 280   0
133      -488281 290  190 290   0
134      -506981 300  170 300   0
135      -526495 310  150 310   0
136      -559304 330  110 330   0
137       -63317  40 1040  40   0
138      -200000 120  880 120   0
139      -112745  70  980  70   0
140      -145631  90  940  90   0
141      -165081 100  920 100   0
142     -94339.6  60 1000  60   0
143      -220588 130  860 130   0
144     -45871.6  30 1060  30   0
145      -282508 170  780 170   0
146           -0  10 1100  10   0
147      -349871 210  700 210   0
148      45871.6  30 1060  30   0
149      -423428 250  620 250   0
150      94339.6  60 1000  60   0
151      -510222 300  520 300   0
152       145631  90  940  90   0
153      -624510 370  380 370   0
154       200000 120  880 120   0

# Format of ADC events:
# id num dwell delay freq phase
# ..  ..    ns    us   Hz   rad
[ADC]
1 128 50000 50 0 4.08407
2 128 50000 50 0 8.16814
3 128 50000 50 0 14.2942
4 128 50000 50 0 22.4624
5 128 50000 50 0 32.6726
6 128 50000 50 0 44.9248
7 128 50000 50 0 59.219
8 128 50000 50 0 75.5553
9 128 50000 50 0 93.9336
10 128 50000 50 0 114.354
11 128 50000 50 0 136.816
12 128 50000 50 0 161.321
13 128 50000 50 0 187.867
14 128 50000 50 0 216.456
15 128 50000 50 0 247.086
16 128 50000 50 0 279.759
17 128 50000 50 0 314.473
18 128 50000 50 0 351.23
19 128 50000 50 0 390.029
20 128 50000 50 0 430.869
21 128 50000 50 0 473.752
22 128 50000 50 0 518.677
23 128 50000 50 0 565.644
