# Pulseq sequence file
# Created by PyPulseq

[VERSION]
major 1
minor 4
revision 0

[DEFINITIONS]
AdcRasterTime 1e-07 
BlockDurationRaster 1e-05 
FA 90 
FOV 0.256 0.256 0.006 
GradientRasterTime 1e-05 
Name irse2d 
RadiofrequencyRasterTime 1e-06 
ReconMatrixSize 128 128 1 
SliceOrientation TRA 
TE 0.015 
TR 5 
TotalDuration 4480 

# Format of blocks:
# NUM DUR RF  GX  GY  GZ  ADC  EXT
[BLOCKS]
    1   0   0   0   0   0  0  1
    2   0   0   0   0   0  0  2
    3   0   0   0   0   0  0  3
    4   0   0   0   0   0  0  4
    5   0   0   0   0   0  0  5
    6 946   1   0   0 178  0  0
    7 3932   0   0   0   0  0  0
    8 134   0   1   1   1  0  0
    9   0   0   0   0   0  0  6
   10 286   2   0   0 179  0  0
   11 102   0   3   0 180  0  0
   12 237   0   0   0   0  0  0
   13 536   3   0   0 181  0  0
   14  73   0   0   0   0  0  0
   15  83   0   0   6   0  0  0
   16 652   0   2   0   0  1  0
   17  83   0   0   7   0  0  0
   18 175   0   4   0   5  0  0
   19 492761   0   0   0   0  0  0
   20 946   4   0   0 182  0  0
   21 3932   0   0   0   0  0  0
   22 134   0   1   1   1  0  0
   23   0   0   0   0   0  0  7
   24 286   5   0   0 179  0  0
   25 102   0   3   0 180  0  0
   26 237   0   0   0   0  0  0
   27 536   6   0   0 183  0  0
   28  73   0   0   0   0  0  0
   29  83   0   0   8   0  0  0
   30 652   0   2   0   0  2  0
   31  83   0   0   9   0  0  0
   32 175   0   4   0   5  0  0
   33 492761   0   0   0   0  0  0
   34 946   4   0   0 182  0  0
   35 3932   0   0   0   0  0  0
   36 134   0   1   1   1  0  0
   37   0   0   0   0   0  0  8
   38 286   7   0   0 179  0  0
   39 102   0   3   0 180  0  0
   40 237   0   0   0   0  0  0
   41 536   6   0   0 183  0  0
   42  73   0   0   0   0  0  0
   43  83   0   0  10   0  0  0
   44 652   0   2   0   0  1  0
   45  83   0   0  11   0  0  0
   46 175   0   4   0   5  0  0
   47 492761   0   0   0   0  0  0
   48 946   4   0   0 182  0  0
   49 3932   0   0   0   0  0  0
   50 134   0   1   1   1  0  0
   51   0   0   0   0   0  0  9
   52 286   5   0   0 179  0  0
   53 102   0   3   0 180  0  0
   54 237   0   0   0   0  0  0
   55 536   6   0   0 183  0  0
   56  73   0   0   0   0  0  0
   57  83   0   0  12   0  0  0
   58 652   0   2   0   0  2  0
   59  83   0   0  13   0  0  0
   60 175   0   4   0   5  0  0
   61 492761   0   0   0   0  0  0
   62 946   4   0   0 182  0  0
   63 3932   0   0   0   0  0  0
   64 134   0   1   1   1  0  0
   65   0   0   0   0   0  0 10
   66 286   7   0   0 179  0  0
   67 102   0   3   0 180  0  0
   68 237   0   0   0   0  0  0
   69 536   6   0   0 183  0  0
   70  73   0   0   0   0  0  0
   71  83   0   0  14   0  0  0
   72 652   0   2   0   0  1  0
   73  83   0   0  15   0  0  0
   74 175   0   4   0   5  0  0
   75 492761   0   0   0   0  0  0
   76 946   4   0   0 182  0  0
   77 3932   0   0   0   0  0  0
   78 134   0   1   1   1  0  0
   79   0   0   0   0   0  0 11
   80 286   5   0   0 179  0  0
   81 102   0   3   0 180  0  0
   82 237   0   0   0   0  0  0
   83 536   6   0   0 183  0  0
   84  73   0   0   0   0  0  0
   85  83   0   0  16   0  0  0
   86 652   0   2   0   0  2  0
   87  83   0   0  17   0  0  0
   88 175   0   4   0   5  0  0
   89 492761   0   0   0   0  0  0
   90 946   4   0   0 182  0  0
   91 3932   0   0   0   0  0  0
   92 134   0   1   1   1  0  0
   93   0   0   0   0   0  0 12
   94 286   7   0   0 179  0  0
   95 102   0   3   0 180  0  0
   96 237   0   0   0   0  0  0
   97 536   6   0   0 183  0  0
   98  73   0   0   0   0  0  0
   99  83   0   0  18   0  0  0
  100 652   0   2   0   0  1  0
  101  83   0   0  19   0  0  0
  102 175   0   4   0   5  0  0
  103 492761   0   0   0   0  0  0
  104 946   4   0   0 182  0  0
  105 3932   0   0   0   0  0  0
  106 134   0   1   1   1  0  0
  107   0   0   0   0   0  0 13
  108 286   5   0   0 179  0  0
  109 102   0   3   0 180  0  0
  110 237   0   0   0   0  0  0
  111 536   6   0   0 183  0  0
  112  73   0   0   0   0  0  0
  113  83   0   0  20   0  0  0
  114 652   0   2   0   0  2  0
  115  83   0   0  21   0  0  0
  116 175   0   4   0   5  0  0
  117 492761   0   0   0   0  0  0
  118 946   4   0   0 182  0  0
  119 3932   0   0   0   0  0  0
  120 134   0   1   1   1  0  0
  121   0   0   0   0   0  0 14
  122 286   7   0   0 179  0  0
  123 102   0   3   0 180  0  0
  124 237   0   0   0   0  0  0
  125 536   6   0   0 183  0  0
  126  73   0   0   0   0  0  0
  127  83   0   0  22   0  0  0
  128 652   0   2   0   0  1  0
  129  83   0   0  23   0  0  0
  130 175   0   4   0   5  0  0
  131 492761   0   0   0   0  0  0
  132 946   4   0   0 182  0  0
  133 3932   0   0   0   0  0  0
  134 134   0   1   1   1  0  0
  135   0   0   0   0   0  0 15
  136 286   5   0   0 179  0  0
  137 102   0   3   0 180  0  0
  138 237   0   0   0   0  0  0
  139 536   6   0   0 183  0  0
  140  73   0   0   0   0  0  0
  141  83   0   0  24   0  0  0
  142 652   0   2   0   0  2  0
  143  83   0   0  25   0  0  0
  144 175   0   4   0   5  0  0
  145 492761   0   0   0   0  0  0
  146 946   4   0   0 182  0  0
  147 3932   0   0   0   0  0  0
  148 134   0   1   1   1  0  0
  149   0   0   0   0   0  0 16
  150 286   7   0   0 179  0  0
  151 102   0   3   0 180  0  0
  152 237   0   0   0   0  0  0
  153 536   6   0   0 183  0  0
  154  73   0   0   0   0  0  0
  155  83   0   0  26   0  0  0
  156 652   0   2   0   0  1  0
  157  83   0   0  27   0  0  0
  158 175   0   4   0   5  0  0
  159 492761   0   0   0   0  0  0
  160 946   4   0   0 182  0  0
  161 3932   0   0   0   0  0  0
  162 134   0   1   1   1  0  0
  163   0   0   0   0   0  0 17
  164 286   5   0   0 179  0  0
  165 102   0   3   0 180  0  0
  166 237   0   0   0   0  0  0
  167 536   6   0   0 183  0  0
  168  73   0   0   0   0  0  0
  169  83   0   0  28   0  0  0
  170 652   0   2   0   0  2  0
  171  83   0   0  29   0  0  0
  172 175   0   4   0   5  0  0
  173 492761   0   0   0   0  0  0
  174 946   4   0   0 182  0  0
  175 3932   0   0   0   0  0  0
  176 134   0   1   1   1  0  0
  177   0   0   0   0   0  0 18
  178 286   7   0   0 179  0  0
  179 102   0   3   0 180  0  0
  180 237   0   0   0   0  0  0
  181 536   6   0   0 183  0  0
  182  73   0   0   0   0  0  0
  183  83   0   0  30   0  0  0
  184 652   0   2   0   0  1  0
  185  83   0   0  31   0  0  0
  186 175   0   4   0   5  0  0
  187 492761   0   0   0   0  0  0
  188 946   4   0   0 182  0  0
  189 3932   0   0   0   0  0  0
  190 134   0   1   1   1  0  0
  191   0   0   0   0   0  0 19
  192 286   5   0   0 179  0  0
  193 102   0   3   0 180  0  0
  194 237   0   0   0   0  0  0
  195 536   6   0   0 183  0  0
  196  73   0   0   0   0  0  0
  197  83   0   0  32   0  0  0
  198 652   0   2   0   0  2  0
  199  83   0   0  33   0  0  0
  200 175   0   4   0   5  0  0
  201 492761   0   0   0   0  0  0
  202 946   4   0   0 182  0  0
  203 3932   0   0   0   0  0  0
  204 134   0   1   1   1  0  0
  205   0   0   0   0   0  0 20
  206 286   7   0   0 179  0  0
  207 102   0   3   0 180  0  0
  208 237   0   0   0   0  0  0
  209 536   6   0   0 183  0  0
  210  73   0   0   0   0  0  0
  211  83   0   0  34   0  0  0
  212 652   0   2   0   0  1  0
  213  83   0   0  35   0  0  0
  214 175   0   4   0   5  0  0
  215 492761   0   0   0   0  0  0
  216 946   4   0   0 182  0  0
  217 3932   0   0   0   0  0  0
  218 134   0   1   1   1  0  0
  219   0   0   0   0   0  0 21
  220 286   5   0   0 179  0  0
  221 102   0   3   0 180  0  0
  222 237   0   0   0   0  0  0
  223 536   6   0   0 183  0  0
  224  73   0   0   0   0  0  0
  225  83   0   0  36   0  0  0
  226 652   0   2   0   0  2  0
  227  83   0   0  37   0  0  0
  228 175   0   4   0   5  0  0
  229 492761   0   0   0   0  0  0
  230 946   4   0   0 182  0  0
  231 3932   0   0   0   0  0  0
  232 134   0   1   1   1  0  0
  233   0   0   0   0   0  0 22
  234 286   7   0   0 179  0  0
  235 102   0   3   0 180  0  0
  236 237   0   0   0   0  0  0
  237 536   6   0   0 183  0  0
  238  73   0   0   0   0  0  0
  239  83   0   0  38   0  0  0
  240 652   0   2   0   0  1  0
  241  83   0   0  39   0  0  0
  242 175   0   4   0   5  0  0
  243 492761   0   0   0   0  0  0
  244 946   4   0   0 182  0  0
  245 3932   0   0   0   0  0  0
  246 134   0   1   1   1  0  0
  247   0   0   0   0   0  0 23
  248 286   5   0   0 179  0  0
  249 102   0   3   0 180  0  0
  250 237   0   0   0   0  0  0
  251 536   6   0   0 183  0  0
  252  73   0   0   0   0  0  0
  253  83   0   0  40   0  0  0
  254 652   0   2   0   0  2  0
  255  83   0   0  41   0  0  0
  256 175   0   4   0   5  0  0
  257 492761   0   0   0   0  0  0
  258 946   4   0   0 182  0  0
  259 3932   0   0   0   0  0  0
  260 134   0   1   1   1  0  0
  261   0   0   0   0   0  0 24
  262 286   7   0   0 179  0  0
  263 102   0   3   0 180  0  0
  264 237   0   0   0   0  0  0
  265 536   6   0   0 183  0  0
  266  73   0   0   0   0  0  0
  267  83   0   0  42   0  0  0
  268 652   0   2   0   0  1  0
  269  83   0   0  43   0  0  0
  270 175   0   4   0   5  0  0
  271 492761   0   0   0   0  0  0
  272 946   4   0   0 182  0  0
  273 3932   0   0   0   0  0  0
  274 134   0   1   1   1  0  0
  275   0   0   0   0   0  0 25
  276 286   5   0   0 179  0  0
  277 102   0   3   0 180  0  0
  278 237   0   0   0   0  0  0
  279 536   6   0   0 183  0  0
  280  73   0   0   0   0  0  0
  281  83   0   0  44   0  0  0
  282 652   0   2   0   0  2  0
  283  83   0   0  45   0  0  0
  284 175   0   4   0   5  0  0
  285 492761   0   0   0   0  0  0
  286 946   4   0   0 182  0  0
  287 3932   0   0   0   0  0  0
  288 134   0   1   1   1  0  0
  289   0   0   0   0   0  0 26
  290 286   7   0   0 179  0  0
  291 102   0   3   0 180  0  0
  292 237   0   0   0   0  0  0
  293 536   6   0   0 183  0  0
  294  73   0   0   0   0  0  0
  295  83   0   0  46   0  0  0
  296 652   0   2   0   0  1  0
  297  83   0   0  47   0  0  0
[RF]
1      563.687 1 2 0 120 0 0
2      395.033 5 6 0 180 0 4.71239
3      789.964 7 6 0 1430 0 0
4      563.687 1 2 0 120 0 0
5      395.033 5 6 0 180 0 1.5708
6      789.964 7 6 0 1430 0 0
7      395.033 5 6 0 180 0 4.71239

# Format of arbitrary gradients:
#   time_shape_id of 0 means default timing (stepping with grad_raster starting at 1/2 of grad_raster)
# id amplitude amp_shape_id time_shape_id delay
# ..      Hz/m       ..         ..          us
[GRADIENTS]
178       549828 3 4 0
181       550964 8 9 0
182       549828 3 4 0
183       550964 8 9 0

# Format of trapezoid gradients:
# id amplitude rise flat fall delay
# ..      Hz/m   us   us   us    us
[TRAP]
 1      -549828 370  600 370   0
 2        78125  60 6400  60   0
 3       548573 370   90 370   0
 4       552578 380  990 380   0
 5       546448 370  240 370   0
 6       520833 350  130 350   0
 7      -520833 350  130 350   0
 8       502169 340  150 340   0
 9      -502169 340  150 340   0
10       474757 320  190 320   0
11      -474757 320  190 320   0
12       458056 310  210 310   0
13      -458056 310  210 310   0
14       441985 300  230 300   0
15      -441985 300  230 300   0
16       426509 290  250 290   0
17      -426509 290  250 290   0
18       411596 280  270 280   0
19      -411596 280  270 280   0
20       397216 270  290 270   0
21      -397216 270  290 270   0
22       383340 260  310 260   0
23      -383340 260  310 260   0
24       369943 250  330 250   0
25      -369943 250  330 250   0
26       357000 240  350 240   0
27      -357000 240  350 240   0
28       350327 240  350 240   0
29      -350327 240  350 240   0
30       337927 230  370 230   0
31      -337927 230  370 230   0
32       325933 220  390 220   0
33      -325933 220  390 220   0
34       319479 220  390 220   0
35      -319479 220  390 220   0
36       307976 210  410 210   0
37      -307976 210  410 210   0
38       296838 200  430 200   0
39      -296838 200  430 200   0
40       290589 200  430 200   0
41      -290589 200  430 200   0
42       279897 190  450 190   0
43      -279897 190  450 190   0
44       273745 190  450 190   0
45      -273745 190  450 190   0
46       263477 180  470 180   0
47      -263477 180  470 180   0
48       257420 180  470 180   0
49      -257420 180  470 180   0
50       247554 170  490 170   0
51      -247554 170  490 170   0
52       237983 160  510 160   0
53      -237983 160  510 160   0
54       232107 160  510 160   0
55      -232107 160  510 160   0
56       222904 150  530 150   0
57      -222904 150  530 150   0
58       217114 150  530 150   0
59      -217114 150  530 150   0
60       208262 140  550 140   0
61      -208262 140  550 140   0
62       202556 140  550 140   0
63      -202556 140  550 140   0
64       196850 140  550 140   0
65      -196850 140  550 140   0
66       188414 130  570 130   0
67      -188414 130  570 130   0
68       182790 130  570 130   0
69      -182790 130  570 130   0
70       174670 120  590 120   0
71      -174670 120  590 120   0
72       169125 120  590 120   0
73      -169125 120  590 120   0
74       161308 110  610 110   0
75      -161308 110  610 110   0
76       155840 110  610 110   0
77      -155840 110  610 110   0
78       148312 100  630 100   0
79      -148312 100  630 100   0
80       142919 100  630 100   0
81      -142919 100  630 100   0
82       137526 100  630 100   0
83      -137526 100  630 100   0
84       130347  90  650  90   0
85      -130347  90  650  90   0
86       125027  90  650  90   0
87      -125027  90  650  90   0
88       118110  80  670  80   0
89      -118110  80  670  80   0
90       112861  80  670  80   0
91      -112861  80  670  80   0
92       107612  80  670  80   0
93      -107612  80  670  80   0
94       101015  70  690  70   0
95      -101015  70  690  70   0
96      95835.1  70  690  70   0
97     -95835.1  70  690  70   0
98      90654.8  70  690  70   0
99     -90654.8  70  690  70   0
100      84364.5  60  710  60   0
101     -84364.5  60  710  60   0
102      79251.5  60  710  60   0
103     -79251.5  60  710  60   0
104        73188  50  730  50   0
105       -73188  50  730  50   0
106      68140.5  50  730  50   0
107     -68140.5  50  730  50   0
108      63093.1  50  730  50   0
109     -63093.1  50  730  50   0
110      57310.9  40  750  40   0
111     -57310.9  40  750  40   0
112      52327.3  40  750  40   0
113     -52327.3  40  750  40   0
114      47343.8  40  750  40   0
115     -47343.8  40  750  40   0
116      41830.7  30  770  30   0
117     -41830.7  30  770  30   0
118      36909.4  30  770  30   0
119     -36909.4  30  770  30   0
120      31988.2  30  770  30   0
121     -31988.2  30  770  30   0
122      26732.8  20  790  20   0
123     -26732.8  20  790  20   0
124      21872.3  20  790  20   0
125     -21872.3  20  790  20   0
126      17011.8  20  790  20   0
127     -17011.8  20  790  20   0
128      12003.1  10  810  10   0
129     -12003.1  10  810  10   0
130      7201.84  10  810  10   0
131     -7201.84  10  810  10   0
132      2400.61  10  810  10   0
133     -2400.61  10  810  10   0
134     -7201.84  10  810  10   0
135      7201.84  10  810  10   0
136     -12003.1  10  810  10   0
137      12003.1  10  810  10   0
138     -26732.8  20  790  20   0
139      26732.8  20  790  20   0
140     -47343.8  40  750  40   0
141      47343.8  40  750  40   0
142     -52327.3  40  750  40   0
143      52327.3  40  750  40   0
144     -68140.5  50  730  50   0
145      68140.5  50  730  50   0
146     -90654.8  70  690  70   0
147      90654.8  70  690  70   0
148     -95835.1  70  690  70   0
149      95835.1  70  690  70   0
150      -112861  80  670  80   0
151       112861  80  670  80   0
152      -137526 100  630 100   0
153       137526 100  630 100   0
154      -142919 100  630 100   0
155       142919 100  630 100   0
156      -161308 110  610 110   0
157       161308 110  610 110   0
158      -188414 130  570 130   0
159       188414 130  570 130   0
160      -196850 140  550 140   0
161       196850 140  550 140   0
162      -217114 150  530 150   0
163       217114 150  530 150   0
164      -247554 170  490 170   0
165       247554 170  490 170   0
166      -257420 180  470 180   0
167       257420 180  470 180   0
168      -279897 190  450 190   0
169       279897 190  450 190   0
170      -319479 220  390 220   0
171       319479 220  390 220   0
172      -325933 220  390 220   0
173       325933 220  390 220   0
174      -426509 290  250 290   0
175       426509 290  250 290   0
176      -474757 320  190 320   0
177       474757 320  190 320   0
179       266667 180 2500 180   0
180      -549744 370  280 370   0

# Format of ADC events:
# id num dwell delay freq phase
# ..  ..    ns    us   Hz   rad
[ADC]
1 128 50000 60 0 4.71239
2 128 50000 60 0 1.5708

# Format of extension lists:
# id type ref next_id
# next_id of 0 terminates the list
# Extension list is followed by extension specifications
[EXTENSIONS]
1 1 1 0
2 1 2 0
3 1 3 0
4 1 4 0
5 1 5 0
6 1 6 0
7 1 7 0
8 1 8 0
9 1 9 0
10 1 10 0
11 1 11 0
12 1 12 0
13 1 13 0
14 1 14 0
15 1 15 0
16 1 16 0
17 1 17 0
18 1 18 0
19 1 19 0
20 1 20 0
21 1 21 0
22 1 22 0
23 1 23 0
24 1 24 0
25 1 25 0
26 1 26 0
27 1 27 0
28 1 28 0
29 1 29 0
30 1 30 0
31 1 31 0
32 1 32 0
33 1 33 0
34 1 34 0
35 1 35 0
36 1 36 0
37 1 37 0
38 1 38 0
39 1 39 0
40 1 40 0
41 1 41 0
42 1 42 0
43 1 43 0
44 1 44 0
45 1 45 0
46 1 46 0
47 1 47 0
48 1 48 0
49 1 49 0
50 1 50 0
51 1 51 0
52 1 52 0
53 1 53 0
54 1 54 0
55 1 55 0
56 1 56 0
57 1 57 0
58 1 58 0
59 1 59 0
60 1 60 0
61 1 61 0
62 1 62 0
63 1 63 0
64 1 64 0
65 1 65 0
66 1 66 0
67 1 67 0
68 1 68 0
69 1 69 0
70 1 70 0
71 1 71 0
72 1 72 0
73 1 73 0
74 1 74 0
75 1 75 0
76 1 76 0
77 1 77 0
78 1 78 0
79 1 79 0
80 1 80 0
81 1 81 0
82 1 82 0
83 1 83 0
84 1 84 0
85 1 85 0
86 1 86 0
87 1 87 0
88 1 88 0
89 1 89 0
90 1 90 0
91 1 91 0
92 1 92 0
93 1 93 0
94 1 94 0
95 1 95 0
96 1 96 0
97 1 97 0
98 1 98 0
99 1 99 0
100 1 100 0
101 1 101 0
102 1 102 0
103 1 103 0
104 1 104 0
105 1 105 0
106 1 106 0
107 1 107 0
108 1 108 0
109 1 109 0
110 1 110 0
111 1 111 0
112 1 112 0
113 1 113 0
114 1 114 0
115 1 115 0
116 1 116 0
117 1 117 0
118 1 118 0
119 1 119 0
120 1 120 0
121 1 121 0
122 1 122 0
123 1 123 0
124 1 124 0
125 1 125 0
126 1 126 0
127 1 127 0
128 1 128 0
129 1 129 0
130 1 130 0
131 1 131 0
132 1 132 0
133 1 133 0
134 1 134 0
135 1 135 0
136 1 136 0
137 1 137 0
138 1 138 0
139 1 139 0

# Extension specification for setting labels:
# id set labelstring
extension LABELSET 1
1 1 REV
2 0 PAR
3 0 SET
4 0 AVG
5 0 SLC
6 0 LIN
7 1 LIN
8 2 LIN
9 3 LIN
10 4 LIN
11 5 LIN
12 6 LIN
13 7 LIN
14 8 LIN
15 9 LIN
16 10 LIN
17 11 LIN
18 12 LIN
19 13 LIN
20 14 LIN
21 15 LIN
22 16 LIN
23 17 LIN
24 18 LIN
25 19 LIN
26 20 LIN
27 21 LIN
28 22 LIN
29 23 LIN
30 24 LIN
31 25 LIN
32 26 LIN
33 27 LIN
34 28 LIN
35 29 LIN
36 30 LIN
37 31 LIN
38 32 LIN
39 33 LIN
40 34 LIN
41 35 LIN
42 36 LIN
43 37 LIN
44 38 LIN
45 39 LIN
46 40 LIN
47 41 LIN
48 42 LIN
49 43 LIN
50 44 LIN
51 45 LIN
52 46 LIN
53 47 LIN
54 48 LIN
55 49 LIN
56 50 LIN
57 51 LIN
58 52 LIN
59 53 LIN
60 54 LIN
61 55 LIN
62 56 LIN
63 57 LIN
64 58 LIN
65 59 LIN
66 60 LIN
67 61 LIN
68 62 LIN
69 63 LIN
70 64 LIN
71 65 LIN
72 66 LIN
73 67 LIN
74 68 LIN
75 69 LIN
76 70 LIN
77 71 LIN
78 72 LIN
79 73 LIN
80 74 LIN
81 75 LIN
82 76 LIN
83 77 LIN
84 78 LIN
85 79 LIN
86 80 LIN
87 81 LIN
88 82 LIN
89 83 LIN
90 84 LIN
91 85 LIN
92 86 LIN
93 87 LIN
94 88 LIN
95 89 LIN
96 90 LIN
97 91 LIN
98 92 LIN
99 93 LIN
100 94 LIN
101 95 LIN
102 96 LIN
103 97 LIN
104 98 LIN
105 99 LIN
106 100 LIN
107 101 LIN
108 102 LIN
109 103 LIN
110 104 LIN
111 105 LIN
112 106 LIN
113 107 LIN
114 108 LIN
115 109 LIN
116 110 LIN
117 111 LIN
118 112 LIN
119 113 LIN
120 114 LIN
121 115 LIN
122 116 LIN
123 117 LIN
124 118 LIN
125 119 LIN
126 120 LIN
127 121 LIN
128 122 LIN
129 123 LIN
130 124 LIN
131 125 LIN
132 126 LIN
133 127 LIN
134 1 SET
135 2 SET
136 3 SET
137 4 SET
138 5 SET
139 6 SET

# Extension specification for setting labels:
# id set labelstring
extension LABELINC 2

# Sequence Shapes
[SHAPES]

shape_id 1
num_samples 8000
0.0813891752
0.0814540962
0.0815190687
0.0815840926
0.0816491681
0.0817142951
0.0817794738
0.081844704
0.081909986
0.0819753196
0.0820407051
0.0821061423
0.0821716313
0.0822371723
0.0823027651
0.08236841
0.0824341068
0.0824998556
0.0825656566
0.0826315097
0.0826974149
0.0827633723
0.082829382
0.0828954439
0.0829615582
0.0830277249
0.0830939439
0.0831602154
0.0832265394
0.0832929159
0.083359345
0.0834258267
0.083492361
0.083558948
0.0836255878
0.0836922803
0.0837590256
0.0838258238
0.0838926749
0.0839595789
0.0840265359
0.084093546
0.084160609
0.0842277252
0.0842948945
0.084362117
0.0844293927
0.0844967217
0.084564104
0.0846315397
0.0846990287
0.0847665712
0.0848341671
0.0849018165
0.0849695195
0.0850372761
0.0851050863
0.0851729502
0.0852408679
0.0853088392
0.0853768644
0.0854449435
0.0855130764
0.0855812632
0.0856495041
0.0857177989
0.0857861478
0.0858545507
0.0859230079
0.0859915192
0.0860600847
0.0861287044
0.0861973785
0.0862661069
0.0863348898
0.086403727
0.0864726187
0.086541565
0.0866105658
0.0866796211
0.0867487312
0.0868178959
0.0868871153
0.0869563895
0.0870257186
0.0870951024
0.0871645412
0.0872340349
0.0873035836
0.0873731873
0.0874428461
0.08751256
0.087582329
0.0876521532
0.0877220327
0.0877919674
0.0878619575
0.0879320029
0.0880021037
0.08807226
0.0881424718
0.0882127391
0.0882830619
0.0883534404
0.0884238746
0.0884943645
0.0885649101
0.0886355115
0.0887061688
0.0887768819
0.0888476509
0.0889184759
0.088989357
0.089060294
0.0891312872
0.0892023365
0.089273442
0.0893446037
0.0894158217
0.089487096
0.0895584266
0.0896298136
0.0897012571
0.0897727571
0.0898443136
0.0899159267
0.0899875963
0.0900593227
0.0901311057
0.0902029455
0.0902748421
0.0903467955
0.0904188058
0.090490873
0.0905629972
0.0906351784
0.0907074166
0.090779712
0.0908520645
0.0909244741
0.090996941
0.0910694652
0.0911420467
0.0912146855
0.0912873818
0.0913601355
0.0914329467
0.0915058155
0.0915787418
0.0916517257
0.0917247674
0.0917978667
0.0918710238
0.0919442387
0.0920175115
0.0920908421
0.0921642307
0.0922376773
0.0923111819
0.0923847445
0.0924583653
0.0925320443
0.0926057814
0.0926795768
0.0927534305
0.0928273426
0.092901313
0.0929753419
0.0930494292
0.093123575
0.0931977795
0.0932720425
0.0933463642
0.0934207446
0.0934951837
0.0935696816
0.0936442384
0.093718854
0.0937935286
0.0938682621
0.0939430547
0.0940179063
0.094092817
0.0941677869
0.094242816
0.0943179043
0.0943930519
0.0944682588
0.0945435252
0.0946188509
0.0946942361
0.0947696809
0.0948451852
0.0949207491
0.0949963727
0.0950720559
0.095147799
0.0952236018
0.0952994644
0.0953753869
0.0954513694
0.0955274118
0.0956035143
0.0956796768
0.0957558994
0.0958321822
0.0959085252
0.0959849285
0.096061392
0.0961379159
0.0962145002
0.096291145
0.0963678502
0.0964446159
0.0965214422
0.0965983292
0.0966752768
0.0967522851
0.0968293542
0.0969064841
0.0969836748
0.0970609265
0.0971382391
0.0972156127
0.0972930473
0.097370543
0.0974480999
0.0975257179
0.0976033972
0.0976811378
0.0977589396
0.0978368029
0.0979147275
0.0979927137
0.0980707613
0.0981488705
0.0982270413
0.0983052737
0.0983835679
0.0984619238
0.0985403415
0.098618821
0.0986973624
0.0987759658
0.0988546311
0.0989333585
0.0990121479
0.0990909995
0.0991699132
0.0992488892
0.0993279274
0.099407028
0.0994861909
0.0995654162
0.099644704
0.0997240543
0.0998034671
0.0998829425
0.0999624806
0.100042081
0.100121745
0.100201471
0.10028126
0.100361113
0.100441027
0.100521005
0.100601046
0.100681151
0.100761318
0.100841548
0.100921842
0.101002199
0.101082619
0.101163103
0.10124365
0.10132426
0.101404934
0.101485672
0.101566473
0.101647338
0.101728266
0.101809258
0.101890315
0.101971435
0.102052618
0.102133866
0.102215178
0.102296554
0.102377994
0.102459498
0.102541066
0.102622699
0.102704396
0.102786157
0.102867983
0.102949873
0.103031827
0.103113846
0.10319593
0.103278078
0.103360291
0.103442569
0.103524912
0.103607319
0.103689791
0.103772328
0.10385493
0.103937598
0.10402033
0.104103127
0.10418599
0.104268918
0.104351911
0.104434969
0.104518093
0.104601282
0.104684537
0.104767857
0.104851243
0.104934695
0.105018212
0.105101795
0.105185443
0.105269158
0.105352938
0.105436784
0.105520697
0.105604675
0.105688719
0.10577283
0.105857006
0.105941249
0.106025559
0.106109934
0.106194376
0.106278884
0.106363459
0.1064481
0.106532808
0.106617583
0.106702424
0.106787332
0.106872307
0.106957349
0.107042457
0.107127632
0.107212875
0.107298184
0.107383561
0.107469005
0.107554515
0.107640094
0.107725739
0.107811452
0.107897232
0.107983079
0.108068995
0.108154977
0.108241027
0.108327145
0.108413331
0.108499584
0.108585905
0.108672294
0.108758751
0.108845276
0.108931869
0.10901853
0.109105259
0.109192056
0.109278922
0.109365856
0.109452858
0.109539928
0.109627067
0.109714274
0.10980155
0.109888894
0.109976307
0.110063789
0.11015134
0.110238959
0.110326647
0.110414404
0.11050223
0.110590125
0.110678089
0.110766122
0.110854224
0.110942395
0.111030636
0.111118946
0.111207325
0.111295774
0.111384292
0.11147288
0.111561537
0.111650264
0.111739061
0.111827927
0.111916863
0.112005869
0.112094945
0.112184091
0.112273306
0.112362592
0.112451948
0.112541374
0.11263087
0.112720437
0.112810074
0.112899781
0.112989558
0.113079406
0.113169325
0.113259314
0.113349374
0.113439504
0.113529705
0.113619977
0.11371032
0.113800734
0.113891218
0.113981774
0.114072401
0.114163099
0.114253868
0.114344708
0.114435619
0.114526602
0.114617656
0.114708782
0.114799979
0.114891247
0.114982587
0.115073999
0.115165483
0.115257038
0.115348665
0.115440364
0.115532135
0.115623977
0.115715892
0.115807879
0.115899938
0.115992069
0.116084273
0.116176549
0.116268897
0.116361317
0.11645381
0.116546375
0.116639013
0.116731724
0.116824507
0.116917363
0.117010292
0.117103294
0.117196368
0.117289516
0.117382736
0.11747603
0.117569397
0.117662836
0.117756349
0.117849936
0.117943595
0.118037328
0.118131135
0.118225015
0.118318968
0.118412995
0.118507096
0.11860127
0.118695519
0.118789841
0.118884237
0.118978707
0.11907325
0.119167868
0.11926256
0.119357327
0.119452167
0.119547082
0.119642071
0.119737134
0.119832272
0.119927484
0.120022771
0.120118132
0.120213568
0.120309079
0.120404665
0.120500325
0.12059606
0.12069187
0.120787756
0.120883716
0.120979751
0.121075862
0.121172048
0.121268309
0.121364645
0.121461057
0.121557544
0.121654106
0.121750745
0.121847458
0.121944248
0.122041113
0.122138054
0.122235071
0.122332164
0.122429332
0.122526577
0.122623898
0.122721295
0.122818768
0.122916317
0.123013942
0.123111644
0.123209423
0.123307277
0.123405209
0.123503217
0.123601301
0.123699462
0.1237977
0.123896015
0.123994406
0.124092875
0.12419142
0.124290043
0.124388742
0.124487519
0.124586373
0.124685304
0.124784313
0.124883399
0.124982562
0.125081803
0.125181121
0.125280517
0.125379991
0.125479542
0.125579171
0.125678878
0.125778663
0.125878526
0.125978467
0.126078485
0.126178582
0.126278758
0.126379011
0.126479343
0.126579753
0.126680241
0.126780808
0.126881454
0.126982178
0.127082981
0.127183862
0.127284822
0.127385861
0.127486979
0.127588176
0.127689452
0.127790807
0.127892241
0.127993754
0.128095347
0.128197018
0.128298769
0.1284006
0.12850251
0.128604499
0.128706568
0.128808717
0.128910945
0.129013254
0.129115642
0.129218109
0.129320657
0.129423285
0.129525993
0.129628781
0.129731649
0.129834597
0.129937626
0.130040735
0.130143924
0.130247194
0.130350545
0.130453976
0.130557487
0.13066108
0.130764753
0.130868507
0.130972342
0.131076258
0.131180254
0.131284332
0.131388491
0.131492731
0.131597053
0.131701456
0.13180594
0.131910505
0.132015152
0.132119881
0.132224691
0.132329583
0.132434556
0.132539612
0.132644749
0.132749968
0.132855269
0.132960652
0.133066117
0.133171664
0.133277294
0.133383006
0.1334888
0.133594676
0.133700635
0.133806677
0.133912801
0.134019007
0.134125297
0.134231669
0.134338124
0.134444662
0.134551282
0.134657986
0.134764773
0.134871643
0.134978596
0.135085632
0.135192752
0.135299955
0.135407241
0.135514611
0.135622064
0.135729601
0.135837222
0.135944926
0.136052715
0.136160587
0.136268543
0.136376583
0.136484707
0.136592915
0.136701207
0.136809583
0.136918044
0.137026589
0.137135218
0.137243932
0.137352731
0.137461614
0.137570582
0.137679634
0.137788771
0.137897993
0.1380073
0.138116692
0.138226169
0.138335731
0.138445378
0.13855511
0.138664928
0.138774831
0.138884819
0.138994893
0.139105052
0.139215297
0.139325628
0.139436044
0.139546546
0.139657134
0.139767808
0.139878567
0.139989413
0.140100345
0.140211363
0.140322467
0.140433657
0.140544934
0.140656297
0.140767747
0.140879283
0.140990906
0.141102615
0.141214411
0.141326294
0.141438264
0.14155032
0.141662464
0.141774694
0.141887012
0.141999417
0.142111909
0.142224488
0.142337155
0.142449909
0.14256275
0.142675679
0.142788696
0.1429018
0.143014992
0.143128272
0.14324164
0.143355095
0.143468639
0.143582271
0.14369599
0.143809798
0.143923694
0.144037679
0.144151751
0.144265912
0.144380162
0.1444945
0.144608927
0.144723443
0.144838047
0.14495274
0.145067522
0.145182393
0.145297352
0.145412401
0.145527539
0.145642767
0.145758083
0.145873489
0.145988984
0.146104569
0.146220243
0.146336007
0.14645186
0.146567803
0.146683836
0.146799959
0.146916171
0.147032474
0.147148867
0.147265349
0.147381922
0.147498585
0.147615339
0.147732182
0.147849116
0.147966141
0.148083256
0.148200462
0.148317759
0.148435146
0.148552624
0.148670193
0.148787853
0.148905604
0.149023446
0.149141379
0.149259403
0.149377519
0.149495726
0.149614024
0.149732414
0.149850895
0.149969468
0.150088132
0.150206889
0.150325737
0.150444677
0.150563709
0.150682832
0.150802048
0.150921356
0.151040757
0.151160249
0.151279834
0.151399511
0.151519281
0.151639143
0.151759098
0.151879145
0.151999285
0.152119518
0.152239844
0.152360263
0.152480774
0.152601379
0.152722077
0.152842868
0.152963752
0.15308473
0.153205801
0.153326965
0.153448223
0.153569575
0.15369102
0.153812559
0.153934191
0.154055918
0.154177738
0.154299653
0.154421661
0.154543764
0.15466596
0.154788251
0.154910637
0.155033117
