# Pulseq sequence file
# Created by PyPulseq

[VERSION]
major 1
minor 4
revision 0

[DEFINITIONS]
AdcRasterTime 1e-07 
BlockDurationRaster 1e-05 
FA 90 
FOV 0.256 0.256 0.006 
GradientRasterTime 1e-05 
Name mcse2d 
RadiofrequencyRasterTime 1e-06 
ReconMatrixSize 128 128 1 
SliceOrientation TRA 
TE 0.015 0.03 0.045 0.06 0.075 0.09 0.105 0.12 0.135 0.15 0.165 0.18 0.195 0.21 0.225 0.24 0.255 0.27 0.285 0.3 0.315 0.33 0.345 0.36 0.375 0.39 0.405 0.42 0.435 0.45 0.465 0.48 
TR 5 
TotalDuration 640 

# Format of blocks:
# NUM DUR RF  GX  GY  GZ  ADC  EXT
[BLOCKS]
    1   0   0   0   0   0  0  1
    2   0   0   0   0   0  0  2
    3   0   0   0   0   0  0  3
    4   0   0   0   0   0  0  4
    5   0   0   0   0   0  0  5
    6 286   1   0   0 177  0  0
    7 102   0   2   0 178  0  0
    8 237   0   0   0   0  0  0
    9 536   2   0   0 179  0  0
   10  73   0   0   0   0  0  0
   11  83   0   0   5   0  0  0
   12   0   0   0   0   0  0  6
   13 652   0   1   0   0  1  0
   14  83   0   0   6   0  0  0
   15  73   0   0   0   0  0  0
   16 536   3   0   0 180  0  0
   17  73   0   0   0   0  0  0
   18  83   0   0   5   0  0  0
   19   0   0   0   0   0  0  7
   20 652   0   1   0   0  1  0
   21  83   0   0   6   0  0  0
   22  73   0   0   0   0  0  0
   23 536   3   0   0 180  0  0
   24  73   0   0   0   0  0  0
   25  83   0   0   5   0  0  0
   26   0   0   0   0   0  0  8
   27 652   0   1   0   0  1  0
   28  83   0   0   6   0  0  0
   29  73   0   0   0   0  0  0
   30 536   3   0   0 180  0  0
   31  73   0   0   0   0  0  0
   32  83   0   0   5   0  0  0
   33   0   0   0   0   0  0  9
   34 652   0   1   0   0  1  0
   35  83   0   0   6   0  0  0
   36  73   0   0   0   0  0  0
   37 536   3   0   0 180  0  0
   38  73   0   0   0   0  0  0
   39  83   0   0   5   0  0  0
   40   0   0   0   0   0  0 10
   41 652   0   1   0   0  1  0
   42  83   0   0   6   0  0  0
   43  73   0   0   0   0  0  0
   44 536   3   0   0 180  0  0
   45  73   0   0   0   0  0  0
   46  83   0   0   5   0  0  0
   47   0   0   0   0   0  0 11
   48 652   0   1   0   0  1  0
   49  83   0   0   6   0  0  0
   50  73   0   0   0   0  0  0
   51 536   3   0   0 180  0  0
   52  73   0   0   0   0  0  0
   53  83   0   0   5   0  0  0
   54   0   0   0   0   0  0 12
   55 652   0   1   0   0  1  0
   56  83   0   0   6   0  0  0
   57  73   0   0   0   0  0  0
   58 536   3   0   0 180  0  0
   59  73   0   0   0   0  0  0
   60  83   0   0   5   0  0  0
   61   0   0   0   0   0  0 13
   62 652   0   1   0   0  1  0
   63  83   0   0   6   0  0  0
   64  73   0   0   0   0  0  0
   65 536   3   0   0 180  0  0
   66  73   0   0   0   0  0  0
   67  83   0   0   5   0  0  0
   68   0   0   0   0   0  0 14
   69 652   0   1   0   0  1  0
   70  83   0   0   6   0  0  0
   71  73   0   0   0   0  0  0
   72 536   3   0   0 180  0  0
   73  73   0   0   0   0  0  0
   74  83   0   0   5   0  0  0
   75   0   0   0   0   0  0 15
   76 652   0   1   0   0  1  0
   77  83   0   0   6   0  0  0
   78  73   0   0   0   0  0  0
   79 536   3   0   0 180  0  0
   80  73   0   0   0   0  0  0
   81  83   0   0   5   0  0  0
   82   0   0   0   0   0  0 16
   83 652   0   1   0   0  1  0
   84  83   0   0   6   0  0  0
   85  73   0   0   0   0  0  0
   86 536   3   0   0 180  0  0
   87  73   0   0   0   0  0  0
   88  83   0   0   5   0  0  0
   89   0   0   0   0   0  0 17
   90 652   0   1   0   0  1  0
   91  83   0   0   6   0  0  0
   92  73   0   0   0   0  0  0
   93 536   3   0   0 180  0  0
   94  73   0   0   0   0  0  0
   95  83   0   0   5   0  0  0
   96   0   0   0   0   0  0 18
   97 652   0   1   0   0  1  0
   98  83   0   0   6   0  0  0
   99  73   0   0   0   0  0  0
  100 536   3   0   0 180  0  0
  101  73   0   0   0   0  0  0
  102  83   0   0   5   0  0  0
  103   0   0   0   0   0  0 19
  104 652   0   1   0   0  1  0
  105  83   0   0   6   0  0  0
  106  73   0   0   0   0  0  0
  107 536   3   0   0 180  0  0
  108  73   0   0   0   0  0  0
  109  83   0   0   5   0  0  0
  110   0   0   0   0   0  0 20
  111 652   0   1   0   0  1  0
  112  83   0   0   6   0  0  0
  113  73   0   0   0   0  0  0
  114 536   3   0   0 180  0  0
  115  73   0   0   0   0  0  0
  116  83   0   0   5   0  0  0
  117   0   0   0   0   0  0 21
  118 652   0   1   0   0  1  0
  119  83   0   0   6   0  0  0
  120  73   0   0   0   0  0  0
  121 536   3   0   0 180  0  0
  122  73   0   0   0   0  0  0
  123  83   0   0   5   0  0  0
  124   0   0   0   0   0  0 22
  125 652   0   1   0   0  1  0
  126  83   0   0   6   0  0  0
  127  73   0   0   0   0  0  0
  128 536   3   0   0 180  0  0
  129  73   0   0   0   0  0  0
  130  83   0   0   5   0  0  0
  131   0   0   0   0   0  0 23
  132 652   0   1   0   0  1  0
  133  83   0   0   6   0  0  0
  134  73   0   0   0   0  0  0
  135 536   3   0   0 180  0  0
  136  73   0   0   0   0  0  0
  137  83   0   0   5   0  0  0
  138   0   0   0   0   0  0 24
  139 652   0   1   0   0  1  0
  140  83   0   0   6   0  0  0
  141  73   0   0   0   0  0  0
  142 536   3   0   0 180  0  0
  143  73   0   0   0   0  0  0
  144  83   0   0   5   0  0  0
  145   0   0   0   0   0  0 25
  146 652   0   1   0   0  1  0
  147  83   0   0   6   0  0  0
  148  73   0   0   0   0  0  0
  149 536   3   0   0 180  0  0
  150  73   0   0   0   0  0  0
  151  83   0   0   5   0  0  0
  152   0   0   0   0   0  0 26
  153 652   0   1   0   0  1  0
  154  83   0   0   6   0  0  0
  155  73   0   0   0   0  0  0
  156 536   3   0   0 180  0  0
  157  73   0   0   0   0  0  0
  158  83   0   0   5   0  0  0
  159   0   0   0   0   0  0 27
  160 652   0   1   0   0  1  0
  161  83   0   0   6   0  0  0
  162  73   0   0   0   0  0  0
  163 536   3   0   0 180  0  0
  164  73   0   0   0   0  0  0
  165  83   0   0   5   0  0  0
  166   0   0   0   0   0  0 28
  167 652   0   1   0   0  1  0
  168  83   0   0   6   0  0  0
  169  73   0   0   0   0  0  0
  170 536   3   0   0 180  0  0
  171  73   0   0   0   0  0  0
  172  83   0   0   5   0  0  0
  173   0   0   0   0   0  0 29
  174 652   0   1   0   0  1  0
  175  83   0   0   6   0  0  0
  176  73   0   0   0   0  0  0
  177 536   3   0   0 180  0  0
  178  73   0   0   0   0  0  0
  179  83   0   0   5   0  0  0
  180   0   0   0   0   0  0 30
  181 652   0   1   0   0  1  0
  182  83   0   0   6   0  0  0
  183  73   0   0   0   0  0  0
  184 536   3   0   0 180  0  0
  185  73   0   0   0   0  0  0
  186  83   0   0   5   0  0  0
  187   0   0   0   0   0  0 31
  188 652   0   1   0   0  1  0
  189  83   0   0   6   0  0  0
  190  73   0   0   0   0  0  0
  191 536   3   0   0 180  0  0
  192  73   0   0   0   0  0  0
  193  83   0   0   5   0  0  0
  194   0   0   0   0   0  0 32
  195 652   0   1   0   0  1  0
  196  83   0   0   6   0  0  0
  197  73   0   0   0   0  0  0
  198 536   3   0   0 180  0  0
  199  73   0   0   0   0  0  0
  200  83   0   0   5   0  0  0
  201   0   0   0   0   0  0 33
  202 652   0   1   0   0  1  0
  203  83   0   0   6   0  0  0
  204  73   0   0   0   0  0  0
  205 536   3   0   0 180  0  0
  206  73   0   0   0   0  0  0
  207  83   0   0   5   0  0  0
  208   0   0   0   0   0  0 34
  209 652   0   1   0   0  1  0
  210  83   0   0   6   0  0  0
  211  73   0   0   0   0  0  0
  212 536   3   0   0 180  0  0
  213  73   0   0   0   0  0  0
  214  83   0   0   5   0  0  0
  215   0   0   0   0   0  0 35
  216 652   0   1   0   0  1  0
  217  83   0   0   6   0  0  0
  218  73   0   0   0   0  0  0
  219 536   3   0   0 180  0  0
  220  73   0   0   0   0  0  0
  221  83   0   0   5   0  0  0
  222   0   0   0   0   0  0 36
  223 652   0   1   0   0  1  0
  224  83   0   0   6   0  0  0
  225  73   0   0   0   0  0  0
  226 536   3   0   0 180  0  0
  227  73   0   0   0   0  0  0
  228  83   0   0   5   0  0  0
  229   0   0   0   0   0  0 37
  230 652   0   1   0   0  1  0
  231  83   0   0   6   0  0  0
  232 175   0   3   0   4  0  0
  233 451273   0   0   0   0  0  0
  234   0   0   0   0   0  0 38
  235 286   4   0   0 177  0  0
  236 102   0   2   0 178  0  0
  237 237   0   0   0   0  0  0
  238 536   3   0   0 180  0  0
  239  73   0   0   0   0  0  0
  240  83   0   0   7   0  0  0
  241   0   0   0   0   0  0  6
  242 652   0   1   0   0  2  0
  243  83   0   0   8   0  0  0
  244  73   0   0   0   0  0  0
  245 536   3   0   0 180  0  0
  246  73   0   0   0   0  0  0
  247  83   0   0   7   0  0  0
  248   0   0   0   0   0  0  7
  249 652   0   1   0   0  2  0
  250  83   0   0   8   0  0  0
  251  73   0   0   0   0  0  0
  252 536   3   0   0 180  0  0
  253  73   0   0   0   0  0  0
  254  83   0   0   7   0  0  0
  255   0   0   0   0   0  0  8
  256 652   0   1   0   0  2  0
  257  83   0   0   8   0  0  0
  258  73   0   0   0   0  0  0
  259 536   3   0   0 180  0  0
  260  73   0   0   0   0  0  0
  261  83   0   0   7   0  0  0
  262   0   0   0   0   0  0  9
  263 652   0   1   0   0  2  0
  264  83   0   0   8   0  0  0
  265  73   0   0   0   0  0  0
  266 536   3   0   0 180  0  0
  267  73   0   0   0   0  0  0
  268  83   0   0   7   0  0  0
  269   0   0   0   0   0  0 10
  270 652   0   1   0   0  2  0
  271  83   0   0   8   0  0  0
  272  73   0   0   0   0  0  0
  273 536   3   0   0 180  0  0
  274  73   0   0   0   0  0  0
  275  83   0   0   7   0  0  0
  276   0   0   0   0   0  0 11
  277 652   0   1   0   0  2  0
  278  83   0   0   8   0  0  0
  279  73   0   0   0   0  0  0
  280 536   3   0   0 180  0  0
  281  73   0   0   0   0  0  0
  282  83   0   0   7   0  0  0
  283   0   0   0   0   0  0 12
  284 652   0   1   0   0  2  0
  285  83   0   0   8   0  0  0
  286  73   0   0   0   0  0  0
  287 536   3   0   0 180  0  0
  288  73   0   0   0   0  0  0
  289  83   0   0   7   0  0  0
  290   0   0   0   0   0  0 13
  291 652   0   1   0   0  2  0
  292  83   0   0   8   0  0  0
  293  73   0   0   0   0  0  0
  294 536   3   0   0 180  0  0
[RF]
1      395.033 1 2 0 180 0 4.71239
2      789.964 3 2 0 1430 0 0
3      789.964 3 2 0 1430 0 0
4      395.033 1 2 0 180 0 1.5708
5      395.033 1 2 0 180 0 4.71239

# Format of arbitrary gradients:
#   time_shape_id of 0 means default timing (stepping with grad_raster starting at 1/2 of grad_raster)
# id amplitude amp_shape_id time_shape_id delay
# ..      Hz/m       ..         ..          us
[GRADIENTS]
179       550964 4 5 0
180       550964 4 5 0

# Format of trapezoid gradients:
# id amplitude rise flat fall delay
# ..      Hz/m   us   us   us    us
[TRAP]
 1        78125  60 6400  60   0
 2       548573 370   90 370   0
 3       552578 380  990 380   0
 4       546448 370  240 370   0
 5       520833 350  130 350   0
 6      -520833 350  130 350   0
 7       502169 340  150 340   0
 8      -502169 340  150 340   0
 9       474757 320  190 320   0
10      -474757 320  190 320   0
11       458056 310  210 310   0
12      -458056 310  210 310   0
13       441985 300  230 300   0
14      -441985 300  230 300   0
15       426509 290  250 290   0
16      -426509 290  250 290   0
17       411596 280  270 280   0
18      -411596 280  270 280   0
19       397216 270  290 270   0
20      -397216 270  290 270   0
21       383340 260  310 260   0
22      -383340 260  310 260   0
23       369943 250  330 250   0
24      -369943 250  330 250   0
25       357000 240  350 240   0
26      -357000 240  350 240   0
27       350327 240  350 240   0
28      -350327 240  350 240   0
29       337927 230  370 230   0
30      -337927 230  370 230   0
31       325933 220  390 220   0
32      -325933 220  390 220   0
33       319479 220  390 220   0
34      -319479 220  390 220   0
35       307976 210  410 210   0
36      -307976 210  410 210   0
37       296838 200  430 200   0
38      -296838 200  430 200   0
39       290589 200  430 200   0
40      -290589 200  430 200   0
41       279897 190  450 190   0
42      -279897 190  450 190   0
43       273745 190  450 190   0
44      -273745 190  450 190   0
45       263477 180  470 180   0
46      -263477 180  470 180   0
47       257420 180  470 180   0
48      -257420 180  470 180   0
49       247554 170  490 170   0
50      -247554 170  490 170   0
51       237983 160  510 160   0
52      -237983 160  510 160   0
53       232107 160  510 160   0
54      -232107 160  510 160   0
55       222904 150  530 150   0
56      -222904 150  530 150   0
57       217114 150  530 150   0
58      -217114 150  530 150   0
59       208262 140  550 140   0
60      -208262 140  550 140   0
61       202556 140  550 140   0
62      -202556 140  550 140   0
63       196850 140  550 140   0
64      -196850 140  550 140   0
65       188414 130  570 130   0
66      -188414 130  570 130   0
67       182790 130  570 130   0
68      -182790 130  570 130   0
69       174670 120  590 120   0
70      -174670 120  590 120   0
71       169125 120  590 120   0
72      -169125 120  590 120   0
73       161308 110  610 110   0
74      -161308 110  610 110   0
75       155840 110  610 110   0
76      -155840 110  610 110   0
77       148312 100  630 100   0
78      -148312 100  630 100   0
79       142919 100  630 100   0
80      -142919 100  630 100   0
81       137526 100  630 100   0
82      -137526 100  630 100   0
83       130347  90  650  90   0
84      -130347  90  650  90   0
85       125027  90  650  90   0
86      -125027  90  650  90   0
87       118110  80  670  80   0
88      -118110  80  670  80   0
89       112861  80  670  80   0
90      -112861  80  670  80   0
91       107612  80  670  80   0
92      -107612  80  670  80   0
93       101015  70  690  70   0
94      -101015  70  690  70   0
95      95835.1  70  690  70   0
96     -95835.1  70  690  70   0
97      90654.8  70  690  70   0
98     -90654.8  70  690  70   0
99      84364.5  60  710  60   0
100     -84364.5  60  710  60   0
101      79251.5  60  710  60   0
102     -79251.5  60  710  60   0
103        73188  50  730  50   0
104       -73188  50  730  50   0
105      68140.5  50  730  50   0
106     -68140.5  50  730  50   0
107      63093.1  50  730  50   0
108     -63093.1  50  730  50   0
109      57310.9  40  750  40   0
110     -57310.9  40  750  40   0
111      52327.3  40  750  40   0
112     -52327.3  40  750  40   0
113      47343.8  40  750  40   0
114     -47343.8  40  750  40   0
115      41830.7  30  770  30   0
116     -41830.7  30  770  30   0
117      36909.4  30  770  30   0
118     -36909.4  30  770  30   0
119      31988.2  30  770  30   0
120     -31988.2  30  770  30   0
121      26732.8  20  790  20   0
122     -26732.8  20  790  20   0
123      21872.3  20  790  20   0
124     -21872.3  20  790  20   0
125      17011.8  20  790  20   0
126     -17011.8  20  790  20   0
127      12003.1  10  810  10   0
128     -12003.1  10  810  10   0
129      7201.84  10  810  10   0
130     -7201.84  10  810  10   0
131      2400.61  10  810  10   0
132     -2400.61  10  810  10   0
133     -7201.84  10  810  10   0
134      7201.84  10  810  10   0
135     -12003.1  10  810  10   0
136      12003.1  10  810  10   0
137     -26732.8  20  790  20   0
138      26732.8  20  790  20   0
139     -47343.8  40  750  40   0
140      47343.8  40  750  40   0
141     -52327.3  40  750  40   0
142      52327.3  40  750  40   0
143     -68140.5  50  730  50   0
144      68140.5  50  730  50   0
145     -90654.8  70  690  70   0
146      90654.8  70  690  70   0
147     -95835.1  70  690  70   0
148      95835.1  70  690  70   0
149      -112861  80  670  80   0
150       112861  80  670  80   0
151      -137526 100  630 100   0
152       137526 100  630 100   0
153      -142919 100  630 100   0
154       142919 100  630 100   0
155      -161308 110  610 110   0
156       161308 110  610 110   0
157      -188414 130  570 130   0
158       188414 130  570 130   0
159      -196850 140  550 140   0
160       196850 140  550 140   0
161      -217114 150  530 150   0
162       217114 150  530 150   0
163      -247554 170  490 170   0
164       247554 170  490 170   0
165      -257420 180  470 180   0
166       257420 180  470 180   0
167      -279897 190  450 190   0
168       279897 190  450 190   0
169      -319479 220  390 220   0
170       319479 220  390 220   0
171      -325933 220  390 220   0
172       325933 220  390 220   0
173      -426509 290  250 290   0
174       426509 290  250 290   0
175      -474757 320  190 320   0
176       474757 320  190 320   0
177       266667 180 2500 180   0
178      -549744 370  280 370   0

# Format of ADC events:
# id num dwell delay freq phase
# ..  ..    ns    us   Hz   rad
[ADC]
1 128 50000 60 0 4.71239
2 128 50000 60 0 1.5708

# Format of extension lists:
# id type ref next_id
# next_id of 0 terminates the list
# Extension list is followed by extension specifications
[EXTENSIONS]
1 1 1 0
2 1 2 0
3 1 3 0
4 1 4 0
5 1 5 0
6 1 6 0
7 1 7 0
8 1 8 0
9 1 9 0
10 1 10 0
11 1 11 0
12 1 12 0
13 1 13 0
14 1 14 0
15 1 15 0
16 1 16 0
17 1 17 0
18 1 18 0
19 1 19 0
20 1 20 0
21 1 21 0
22 1 22 0
23 1 23 0
24 1 24 0
25 1 25 0
26 1 26 0
27 1 27 0
28 1 28 0
29 1 29 0
30 1 30 0
31 1 31 0
32 1 32 0
33 1 33 0
34 1 34 0
35 1 35 0
36 1 36 0
37 1 37 0
38 1 38 0
39 1 39 0
40 1 40 0
41 1 41 0
42 1 42 0
43 1 43 0
44 1 44 0
45 1 45 0
46 1 46 0
47 1 47 0
48 1 48 0
49 1 49 0
50 1 50 0
51 1 51 0
52 1 52 0
53 1 53 0
54 1 54 0
55 1 55 0
56 1 56 0
57 1 57 0
58 1 58 0
59 1 59 0
60 1 60 0
61 1 61 0
62 1 62 0
63 1 63 0
64 1 64 0
65 1 65 0
66 1 66 0
67 1 67 0
68 1 68 0
69 1 69 0
70 1 70 0
71 1 71 0
72 1 72 0
73 1 73 0
74 1 74 0
75 1 75 0
76 1 76 0
77 1 77 0
78 1 78 0
79 1 79 0
80 1 80 0
81 1 81 0
82 1 82 0
83 1 83 0
84 1 84 0
85 1 85 0
86 1 86 0
87 1 87 0
88 1 88 0
89 1 89 0
90 1 90 0
91 1 91 0
92 1 92 0
93 1 93 0
94 1 94 0
95 1 95 0
96 1 96 0
97 1 97 0
98 1 98 0
99 1 99 0
100 1 100 0
101 1 101 0
102 1 102 0
103 1 103 0
104 1 104 0
105 1 105 0
106 1 106 0
107 1 107 0
108 1 108 0
109 1 109 0
110 1 110 0
111 1 111 0
112 1 112 0
113 1 113 0
114 1 114 0
115 1 115 0
116 1 116 0
117 1 117 0
118 1 118 0
119 1 119 0
120 1 120 0
121 1 121 0
122 1 122 0
123 1 123 0
124 1 124 0
125 1 125 0
126 1 126 0
127 1 127 0
128 1 128 0
129 1 129 0
130 1 130 0
131 1 131 0
132 1 132 0
133 1 133 0
134 1 134 0
135 1 135 0
136 1 136 0
137 1 137 0
138 1 138 0
139 1 139 0
140 1 140 0
141 1 141 0
142 1 142 0
143 1 143 0
144 1 144 0
145 1 145 0
146 1 146 0
147 1 147 0
148 1 148 0
149 1 149 0
150 1 150 0
151 1 151 0
152 1 152 0
153 1 153 0
154 1 154 0
155 1 155 0
156 1 156 0
157 1 157 0
158 1 158 0
159 1 159 0
160 1 160 0
161 1 161 0
162 1 162 0
163 1 163 0
164 1 164 0

# Extension specification for setting labels:
# id set labelstring
extension LABELSET 1
1 1 REV
2 0 PAR
3 0 AVG
4 0 SLC
5 0 LIN
6 0 SET
7 1 SET
8 2 SET
9 3 SET
10 4 SET
11 5 SET
12 6 SET
13 7 SET
14 8 SET
15 9 SET
16 10 SET
17 11 SET
18 12 SET
19 13 SET
20 14 SET
21 15 SET
22 16 SET
23 17 SET
24 18 SET
25 19 SET
26 20 SET
27 21 SET
28 22 SET
29 23 SET
30 24 SET
31 25 SET
32 26 SET
33 27 SET
34 28 SET
35 29 SET
36 30 SET
37 31 SET
38 1 LIN
39 2 LIN
40 3 LIN
41 4 LIN
42 5 LIN
43 6 LIN
44 7 LIN
45 8 LIN
46 9 LIN
47 10 LIN
48 11 LIN
49 12 LIN
50 13 LIN
51 14 LIN
52 15 LIN
53 16 LIN
54 17 LIN
55 18 LIN
56 19 LIN
57 20 LIN
58 21 LIN
59 22 LIN
60 23 LIN
61 24 LIN
62 25 LIN
63 26 LIN
64 27 LIN
65 28 LIN
66 29 LIN
67 30 LIN
68 31 LIN
69 32 LIN
70 33 LIN
71 34 LIN
72 35 LIN
73 36 LIN
74 37 LIN
75 38 LIN
76 39 LIN
77 40 LIN
78 41 LIN
79 42 LIN
80 43 LIN
81 44 LIN
82 45 LIN
83 46 LIN
84 47 LIN
85 48 LIN
86 49 LIN
87 50 LIN
88 51 LIN
89 52 LIN
90 53 LIN
91 54 LIN
92 55 LIN
93 56 LIN
94 57 LIN
95 58 LIN
96 59 LIN
97 60 LIN
98 61 LIN
99 62 LIN
100 63 LIN
101 64 LIN
102 65 LIN
103 66 LIN
104 67 LIN
105 68 LIN
106 69 LIN
107 70 LIN
108 71 LIN
109 72 LIN
110 73 LIN
111 74 LIN
112 75 LIN
113 76 LIN
114 77 LIN
115 78 LIN
116 79 LIN
117 80 LIN
118 81 LIN
119 82 LIN
120 83 LIN
121 84 LIN
122 85 LIN
123 86 LIN
124 87 LIN
125 88 LIN
126 89 LIN
127 90 LIN
128 91 LIN
129 92 LIN
130 93 LIN
131 94 LIN
132 95 LIN
133 96 LIN
134 97 LIN
135 98 LIN
136 99 LIN
137 100 LIN
138 101 LIN
139 102 LIN
140 103 LIN
141 104 LIN
142 105 LIN
143 106 LIN
144 107 LIN
145 108 LIN
146 109 LIN
147 110 LIN
148 111 LIN
149 112 LIN
150 113 LIN
151 114 LIN
152 115 LIN
153 116 LIN
154 117 LIN
155 118 LIN
156 119 LIN
157 120 LIN
158 121 LIN
159 122 LIN
160 123 LIN
161 124 LIN
162 125 LIN
163 126 LIN
164 127 LIN

# Extension specification for setting labels:
# id set labelstring
extension LABELINC 2

# Sequence Shapes
[SHAPES]

shape_id 1
num_samples 2500
1.57976903e-10
4.26875233e-09
1.97782093e-08
5.43134016e-08
1.15524076e-07
2.11082041e-07
3.48680538e-07
5.36033601e-07
7.8087542e-07
1.0909597e-06
1.47405902e-06
1.93796417e-06
2.49048354e-06
3.13944243e-06
3.89268239e-06
4.75806061e-06
5.74344921e-06
6.85673462e-06
8.10581688e-06
9.49860898e-06
1.10430362e-05
1.27470355e-05
1.46185547e-05
1.66655519e-05
1.88959948e-05
2.13178601e-05
2.39391324e-05
2.67678044e-05
2.9811875e-05
3.30793498e-05
3.65782395e-05
4.03165599e-05
4.43023306e-05
4.85435747e-05
5.3048318e-05
5.78245882e-05
6.28804145e-05
6.82238264e-05
7.38628534e-05
7.98055242e-05
8.60598659e-05
9.26339033e-05
9.95356584e-05
0.000106773149
0.00011435439
0.000122287389
0.000130580148
0.000139240666
0.000148276929
0.000157696921
0.000167508611
0.000177719965
0.000188338933
0.000199373458
0.000210831471
0.000222720888
0.000235049614
0.000247825541
0.000261056544
0.000274750485
0.000288915208
0.000303558542
0.000318688297
0.000334312266
0.000350438223
0.00036707392
0.000384227091
0.00040190545
0.000420116685
0.000438868464
0.000458168432
0.000478024208
0.000498443388
0.000519433541
0.00054100221
0.000563156911
0.000585905132
0.000609254334
0.000633211945
0.000657785366
0.000682981967
0.000708809084
0.000735274025
0.000762384059
0.000790146428
0.000818568333
0.000847656944
0.000877419394
0.000907862779
0.000938994156
0.000970820547
0.00100334893
0.00103658625
0.00107053941
0.00110521526
0.00114062063
0.00117676229
0.00121364697
0.00125128135
0.00128967209
0.00132882578
0.00136874897
0.00140944815
0.0014509298
0.00149320031
0.00153626605
0.00158013332
0.00162480838
0.00167029743
0.00171660663
0.00176374208
0.00181170982
0.00186051586
0.00191016612
0.00196066649
0.00201202279
0.00206424079
0.00211732621
0.00217128468
0.00222612182
0.00228184314
0.00233845412
0.00239596017
0.00245436663
0.0025136788
0.00257390189
0.00263504106
0.0026971014
0.00276008794
0.00282400563
0.00288885938
0.002954654
0.00302139426
0.00308908483
0.00315773035
0.00322733535
0.00329790431
0.00336944164
0.00344195167
0.00351543866
0.00358990679
0.00366536017
0.00374180285
0.00381923877
0.00389767183
0.00397710582
0.00405754448
0.00413899146
0.00422145033
0.00430492458
0.00438941762
0.00447493278
0.00456147331
0.00464904237
0.00473764306
0.00482727837
0.00491795121
0.00500966443
0.00510242075
0.00519622285
0.0052910733
0.00538697459
0.0054839291
0.00558193917
0.00568100699
0.00578113472
0.00588232439
0.00598457795
0.00608789726
0.00619228409
0.00629774012
0.00640426694
0.00651186602
0.00662053877
0.00673028648
0.00684111037
0.00695301155
0.00706599102
0.00718004971
0.00729518843
0.00741140791
0.00752870877
0.00764709154
0.00776655664
0.0078871044
0.00800873504
0.00813144869
0.00825524536
0.00838012499
0.00850608739
0.00863313228
0.00876125926
0.00889046784
0.00902075744
0.00915212735
0.00928457676
0.00941810476
0.00955271034
0.00968839236
0.00982514961
0.00996298073
0.0101018843
0.0102418587
0.0103829024
0.0105250135
0.0106681901
0.0108124303
0.010957732
0.0111040929
0.0112515108
0.0113999831
0.0115495073
0.0117000809
0.0118517009
0.0120043646
0.0121580688
0.0123128106
0.0124685867
0.0126253936
0.0127832281
0.0129420864
0.0131019649
0.0132628599
0.0134247673
0.0135876832
0.0137516034
0.0139165236
0.0140824394
0.0142493464
0.0144172398
0.014586115
0.0147559672
0.0149267912
0.0150985821
0.0152713346
0.0154450433
0.0156197029
0.0157953076
0.015971852
0.01614933
0.0163277358
0.0165070634
0.0166873065
0.0168684588
0.017050514
0.0172334654
0.0174173064
0.0176020303
0.01778763
0.0179740987
0.018161429
0.0183496138
0.0185386456
0.0187285169
0.0189192201
0.0191107474
0.0193030909
0.0194962426
0.0196901943
0.0198849378
0.0200804647
0.0202767665
0.0204738345
0.02067166
0.020870234
0.0210695477
0.0212695918
0.0214703572
0.0216718343
0.0218740138
0.0220768859
0.022280441
0.0224846691
0.0226895603
0.0228951043
0.0231012911
0.0233081101
0.023515551
0.023723603
0.0239322554
0.0241414974
0.0243513179
0.0245617058
0.02477265
0.0249841389
0.0251961612
0.0254087051
0.025621759
0.0258353111
0.0260493492
0.0262638613
0.0264788352
0.0266942584
0.0269101186
0.0271264031
0.0273430992
0.0275601941
0.0277776747
0.0279955279
0.0282137406
0.0284322995
0.0286511909
0.0288704015
0.0290899174
0.0293097248
0.0295298098
0.0297501584
0.0299707563
0.0301915892
0.0304126427
0.0306339022
0.0308553532
0.0310769807
0.0312987699
0.0315207058
0.0317427732
0.0319649568
0.0321872413
0.0324096112
0.0326320508
0.0328545445
0.0330770763
0.0332996304
0.0335221905
0.0337447406
0.0339672644
0.0341897453
0.0344121668
0.0346345124
0.0348567651
0.0350789082
0.0353009246
0.0355227973
0.0357445089
0.0359660423
0.0361873798
0.036408504
0.0366293972
0.0368500416
0.0370704194
0.0372905125
0.0375103028
0.0377297721
0.0379489021
0.0381676744
0.0383860703
0.0386040714
0.0388216588
0.0390388137
0.039255517
0.0394717499
0.039687493
0.0399027271
0.0401174329
0.0403315908
0.0405451813
0.0407581847
0.0409705812
0.041182351
0.041393474
0.0416039303
0.0418136995
0.0420227615
0.0422310958
0.042438682
0.0426454996
0.0428515278
0.043056746
0.0432611332
0.0434646686
0.0436673311
0.0438690995
0.0440699527
0.0442698694
0.0444688281
0.0446668074
0.0448637857
0.0450597413
0.0452546525
0.0454484975
0.0456412543
0.0458329009
0.0460234152
0.0462127751
0.0464009583
0.0465879425
0.0467737052
0.046958224
0.0471414762
0.0473234392
0.0475040902
0.0476834065
0.0478613652
0.0480379432
0.0482131176
0.0483868652
0.0485591629
0.0487299873
0.0488993151
0.049067123
0.0492333875
0.0493980849
0.0495611917
0.0497226843
0.0498825388
0.0500407314
0.0501972383
0.0503520356
0.0505050992
0.050656405
0.0508059289
0.0509536468
0.0510995343
0.0512435672
0.0513857211
0.0515259716
0.0516642942
0.0518006643
0.0519350574
0.0520674488
0.0521978139
0.0523261278
0.0524523658
0.0525765031
0.0526985147
0.0528183758
0.0529360612
0.053051546
0.0531648051
0.0532758134
0.0533845457
0.0534909768
0.0535950815
0.0536968344
0.0537962103
0.0538931838
0.0539877294
0.0540798218
0.0541694355
0.0542565449
0.0543411246
0.0544231489
0.0545025924
0.0545794292
0.0546536339
0.0547251807
0.0547940438
0.0548601977
0.0549236164
0.0549842743
0.0550421455
0.0550972042
0.0551494246
0.0551987808
0.0552452469
0.055288797
0.0553294052
0.0553670457
0.0554016923
0.0554333193
0.0554619006
0.0554874103
0.0555098224
0.0555291109
0.0555452498
0.0555582131
0.0555679749
0.055574509
0.0555777895
0.0555777905
0.0555744858
0.0555678495
0.0555578555
0.055544478
0.0555276908
0.055507468
0.0554837836
0.0554566116
0.0554259261
0.0553917012
0.0553539108
0.0553125291
0.0552675301
0.055218888
0.0551665768
0.0551105707
0.0550508439
0.0549873706
0.0549201248
0.0548490809
0.0547742132
0.0546954957
0.054612903
0.0545264093
0.0544359888
0.0543416162
0.0542432656
0.0541409116
0.0540345287
0.0539240914
0.0538095742
0.0536909517
0.0535681986
0.0534412894
0.053310199
0.053174902
0.0530353732
0.0528915875
0.0527435198
0.052591145
0.052434438
0.0522733739
0.0521079278
0.0519380747
0.0517637899
0.0515850486
0.0514018261
0.0512140977
0.0510218388
0.050825025
0.0506236316
0.0504176344
0.0502070089
0.0499917308
0.049771776
0.0495471203
0.0493177395
0.0490836097
0.048844707
0.0486010073
0.048352487
0.0480991223
0.0478408895
0.047577765
0.0473097254
0.0470367472
0.0467588071
0.0464758818
0.0461879481
0.045894983
0.0455969633
0.0452938663
0.0449856689
0.0446723486
0.0443538826
0.0440302483
0.0437014233
0.0433673852
0.0430281117
0.0426835806
0.0423337697
0.0419786572
0.0416182211
0.0412524395
0.0408812908
0.0405047535
0.0401228059
0.0397354267
0.0393425947
0.0389442886
0.0385404875
0.0381311702
0.0377163161
0.0372959043
0.0368699143
0.0364383256
0.0360011177
0.0355582704
0.0351097635
0.0346555771
0.0341956912
0.033730086
0.0332587419
0.0327816392
0.0322987587
0.031810081
0.031315587
0.0308152576
0.0303090739
0.0297970172
0.0292790688
0.0287552102
0.028225423
0.0276896891
0.0271479902
0.0266003086
0.0260466262
0.0254869256
0.024921189
0.0243493992
0.0237715388
0.0231875909
0.0225975383
0.0220013643
0.0213990523
0.0207905856
0.020175948
0.0195551232
0.0189280952
0.0182948481
0.017655366
0.0170096335
0.016357635
0.0156993552
0.0150347792
0.0143638918
0.0136866782
0.0130031239
0.0123132144
0.0116169353
0.0109142724
0.0102052119
0.00948973982
0.00876784257
0.00803950667
0.00730471879
0.0065634658
0.00581573473
0.00506151278
0.00430078734
0.00353354594
0.00275977634
0.00197946642
0.00119260427
0.00039917816
0.000400823472
0.001207412
0.00202059863
0.00284039436
0.00366681003
0.00449985627
0.00533954356
0.00618588216
0.00703888216
0.00789855346
0.00876490576
0.00963794859
0.0105176913
0.0114041429
0.0122973125
0.0131972088
0.0141038403
0.0150172155
0.0159373424
0.016864229
0.0177978832
0.0187383124
0.0196855241
0.0206395254
0.0216003233
0.0225679246
0.0235423358
0.0245235634
0.0255116134
0.0265064918
0.0275082045
0.0285167568
0.0295321542
0.0305544018
0.0315835046
0.0326194671
0.033662294
0.0347119895
0.0357685578
0.0368320026
0.0379023276
0.0389795363
0.0400636319
0.0411546175
0.0422524957
0.0433572693
0.0444689405
0.0455875115
0.0467129843
0.0478453605
0.0489846417
0.0501308291
0.0512839238
0.0524439266
0.0536108381
0.0547846587
0.0559653885
0.0571530276
0.0583475756
0.059549032
0.0607573961
0.0619726669
0.0631948433
0.0644239238
0.0656599068
0.0669027904
0.0681525726
0.069409251
0.070672823
0.0719432859
0.0732206367
0.0745048722
0.0757959888
0.0770939828
0.0783988504
0.0797105873
0.0810291892
0.0823546515
0.0836869692
0.0850261372
0.0863721503
0.0877250028
0.0890846891
0.0904512029
0.0918245381
0.0932046881
