# Pulseq sequence file
# Created by PyPulseq

[VERSION]
major 1
minor 4
revision 0

[DEFINITIONS]
AdcRasterTime 1e-07 
BlockDurationRaster 1e-05 
FA 1.571 
FOV 0.256 0.256 0.006 
GradientRasterTime 1e-05 
Name mese2d 
RadiofrequencyRasterTime 1e-06 
ReconMatrixSize 128 128 1 
SliceOrientation TRA 
TE 0.015 0.03 0.045 0.06 0.075 0.09 0.105 0.12 0.135 0.15 0.165 0.18 0.195 0.21 0.225 0.24 0.255 0.27 0.285 0.3 0.315 0.33 0.345 0.36 0.375 0.39 0.405 0.42 0.435 0.45 0.465 0.48 
TR 5 

# Format of blocks:
# NUM DUR RF  GX  GY  GZ  ADC  EXT
[BLOCKS]
    1   0   0   0   0   0  0  1
    2   0   0   0   0   0  0  2
    3   0   0   0   0   0  0  3
    4   0   0   0   0   0  0  4
    5 282   1   0   0   1  0  0
    6  94   0   2   3   4  0  0
    7   0   0   0   0   0  0  5
    8   0   0   0   0   0  0  6
    9 151   0   0   0   0  0  0
   10 728   2   0   0   5  0  0
   11  61   0   0   0   0  0  0
   12 650   0   6   0   0  1  0
   13   0   0   0   0   0  0  7
   14   0   0   0   0   0  0  8
   15  61   0   0   0   0  0  0
   16 728   3   0   0   7  0  0
   17  61   0   0   0   0  0  0
   18 650   0   6   0   0  1  0
   19   0   0   0   0   0  0  7
   20   0   0   0   0   0  0  6
   21  61   0   0   0   0  0  0
   22 728   2   0   0   8  0  0
   23  61   0   0   0   0  0  0
   24 650   0   6   0   0  1  0
   25   0   0   0   0   0  0  7
   26   0   0   0   0   0  0  8
   27  61   0   0   0   0  0  0
   28 728   3   0   0   9  0  0
   29  61   0   0   0   0  0  0
   30 650   0   6   0   0  1  0
   31   0   0   0   0   0  0  7
   32   0   0   0   0   0  0  6
   33  61   0   0   0   0  0  0
   34 728   2   0   0   5  0  0
   35  61   0   0   0   0  0  0
   36 650   0   6   0   0  1  0
   37   0   0   0   0   0  0  7
   38   0   0   0   0   0  0  8
   39  61   0   0   0   0  0  0
   40 728   3   0   0   7  0  0
   41  61   0   0   0   0  0  0
   42 650   0   6   0   0  1  0
   43   0   0   0   0   0  0  7
   44   0   0   0   0   0  0  6
   45  61   0   0   0   0  0  0
   46 728   2   0   0   8  0  0
   47  61   0   0   0   0  0  0
   48 650   0   6   0   0  1  0
   49   0   0   0   0   0  0  7
   50   0   0   0   0   0  0  8
   51  61   0   0   0   0  0  0
   52 728   3   0   0   9  0  0
   53  61   0   0   0   0  0  0
   54 650   0   6   0   0  1  0
   55   0   0   0   0   0  0  7
   56   0   0   0   0   0  0  6
   57  61   0   0   0   0  0  0
   58 728   2   0   0   5  0  0
   59  61   0   0   0   0  0  0
   60 650   0   6   0   0  1  0
   61   0   0   0   0   0  0  7
   62   0   0   0   0   0  0  8
   63  61   0   0   0   0  0  0
   64 728   3   0   0   7  0  0
   65  61   0   0   0   0  0  0
   66 650   0   6   0   0  1  0
   67   0   0   0   0   0  0  7
   68   0   0   0   0   0  0  6
   69  61   0   0   0   0  0  0
   70 728   2   0   0   8  0  0
   71  61   0   0   0   0  0  0
   72 650   0   6   0   0  1  0
   73   0   0   0   0   0  0  7
   74   0   0   0   0   0  0  8
   75  61   0   0   0   0  0  0
   76 728   3   0   0   9  0  0
   77  61   0   0   0   0  0  0
   78 650   0   6   0   0  1  0
   79   0   0   0   0   0  0  7
   80   0   0   0   0   0  0  6
   81  61   0   0   0   0  0  0
   82 728   2   0   0   5  0  0
   83  61   0   0   0   0  0  0
   84 650   0   6   0   0  1  0
   85   0   0   0   0   0  0  7
   86   0   0   0   0   0  0  8
   87  61   0   0   0   0  0  0
   88 728   3   0   0   7  0  0
   89  61   0   0   0   0  0  0
   90 650   0   6   0   0  1  0
   91   0   0   0   0   0  0  7
   92   0   0   0   0   0  0  6
   93  61   0   0   0   0  0  0
   94 728   2   0   0   8  0  0
   95  61   0   0   0   0  0  0
   96 650   0   6   0   0  1  0
   97   0   0   0   0   0  0  7
   98   0   0   0   0   0  0  8
   99  61   0   0   0   0  0  0
  100 728   3   0   0   9  0  0
  101  61   0   0   0   0  0  0
  102 650   0   6   0   0  1  0
  103   0   0   0   0   0  0  7
  104   0   0   0   0   0  0  6
  105  61   0   0   0   0  0  0
  106 728   2   0   0   5  0  0
  107  61   0   0   0   0  0  0
  108 650   0   6   0   0  1  0
  109   0   0   0   0   0  0  7
  110   0   0   0   0   0  0  8
  111  61   0   0   0   0  0  0
  112 728   3   0   0   7  0  0
  113  61   0   0   0   0  0  0
  114 650   0   6   0   0  1  0
  115   0   0   0   0   0  0  7
  116   0   0   0   0   0  0  6
  117  61   0   0   0   0  0  0
  118 728   2   0   0   8  0  0
  119  61   0   0   0   0  0  0
  120 650   0   6   0   0  1  0
  121   0   0   0   0   0  0  7
  122   0   0   0   0   0  0  8
  123  61   0   0   0   0  0  0
  124 728   3   0   0   9  0  0
  125  61   0   0   0   0  0  0
  126 650   0   6   0   0  1  0
  127   0   0   0   0   0  0  7
  128   0   0   0   0   0  0  6
  129  61   0   0   0   0  0  0
  130 728   2   0   0   5  0  0
  131  61   0   0   0   0  0  0
  132 650   0   6   0   0  1  0
  133   0   0   0   0   0  0  7
  134   0   0   0   0   0  0  8
  135  61   0   0   0   0  0  0
  136 728   3   0   0   7  0  0
  137  61   0   0   0   0  0  0
  138 650   0   6   0   0  1  0
  139   0   0   0   0   0  0  7
  140   0   0   0   0   0  0  6
  141  61   0   0   0   0  0  0
  142 728   2   0   0   8  0  0
  143  61   0   0   0   0  0  0
  144 650   0   6   0   0  1  0
  145   0   0   0   0   0  0  7
  146   0   0   0   0   0  0  8
  147  61   0   0   0   0  0  0
  148 728   3   0   0   9  0  0
  149  61   0   0   0   0  0  0
  150 650   0   6   0   0  1  0
  151   0   0   0   0   0  0  7
  152   0   0   0   0   0  0  6
  153  61   0   0   0   0  0  0
  154 728   2   0   0   5  0  0
  155  61   0   0   0   0  0  0
  156 650   0   6   0   0  1  0
  157   0   0   0   0   0  0  7
  158   0   0   0   0   0  0  8
  159  61   0   0   0   0  0  0
  160 728   3   0   0   7  0  0
  161  61   0   0   0   0  0  0
  162 650   0   6   0   0  1  0
  163   0   0   0   0   0  0  7
  164   0   0   0   0   0  0  6
  165  61   0   0   0   0  0  0
  166 728   2   0   0   8  0  0
  167  61   0   0   0   0  0  0
  168 650   0   6   0   0  1  0
  169   0   0   0   0   0  0  7
  170   0   0   0   0   0  0  8
  171  61   0   0   0   0  0  0
  172 728   3   0   0   9  0  0
  173  61   0   0   0   0  0  0
  174 650   0   6   0   0  1  0
  175   0   0   0   0   0  0  7
  176   0   0   0   0   0  0  6
  177  61   0   0   0   0  0  0
  178 728   2   0   0   5  0  0
  179  61   0   0   0   0  0  0
  180 650   0   6   0   0  1  0
  181   0   0   0   0   0  0  7
  182   0   0   0   0   0  0  8
  183  61   0   0   0   0  0  0
  184 728   3   0   0   7  0  0
  185  61   0   0   0   0  0  0
  186 650   0   6   0   0  1  0
  187   0   0   0   0   0  0  7
  188   0   0   0   0   0  0  6
  189  61   0   0   0   0  0  0
  190 728   2   0   0   8  0  0
  191  61   0   0   0   0  0  0
  192 650   0   6   0   0  1  0
  193   0   0   0   0   0  0  7
  194   0   0   0   0   0  0  8
  195  61   0   0   0   0  0  0
  196 728   3   0   0   9  0  0
  197  61   0   0   0   0  0  0
  198 650   0   6   0   0  1  0
  199 157   0  10  11  12  0  0
  200 451518   0   0   0   0  0  0
  201 282   4   0   0   1  0  0
  202  94   0   2  13   4  0  0
  203   0   0   0   0   0  0  5
  204   0   0   0   0   0  0  9
  205 151   0   0   0   0  0  0
  206 728   2   0   0   5  0  0
  207  61   0   0   0   0  0  0
  208 650   0   6   0   0  2  0
  209   0   0   0   0   0  0  7
  210   0   0   0   0   0  0 10
  211  61   0   0   0   0  0  0
  212 728   3   0   0   7  0  0
  213  61   0   0   0   0  0  0
  214 650   0   6   0   0  2  0
  215   0   0   0   0   0  0  7
  216   0   0   0   0   0  0  9
  217  61   0   0   0   0  0  0
  218 728   2   0   0   8  0  0
  219  61   0   0   0   0  0  0
  220 650   0   6   0   0  2  0
  221   0   0   0   0   0  0  7
  222   0   0   0   0   0  0 10
  223  61   0   0   0   0  0  0
  224 728   3   0   0   9  0  0
  225  61   0   0   0   0  0  0
  226 650   0   6   0   0  2  0
  227   0   0   0   0   0  0  7
  228   0   0   0   0   0  0  9
  229  61   0   0   0   0  0  0
  230 728   2   0   0   5  0  0
  231  61   0   0   0   0  0  0
  232 650   0   6   0   0  2  0
  233   0   0   0   0   0  0  7
  234   0   0   0   0   0  0 10
  235  61   0   0   0   0  0  0
  236 728   3   0   0   7  0  0
  237  61   0   0   0   0  0  0
  238 650   0   6   0   0  2  0
  239   0   0   0   0   0  0  7
  240   0   0   0   0   0  0  9
  241  61   0   0   0   0  0  0
  242 728   2   0   0   8  0  0
  243  61   0   0   0   0  0  0
  244 650   0   6   0   0  2  0
  245   0   0   0   0   0  0  7
  246   0   0   0   0   0  0 10
  247  61   0   0   0   0  0  0
  248 728   3   0   0   9  0  0
  249  61   0   0   0   0  0  0
  250 650   0   6   0   0  2  0
  251   0   0   0   0   0  0  7
  252   0   0   0   0   0  0  9
  253  61   0   0   0   0  0  0
  254 728   2   0   0   5  0  0
  255  61   0   0   0   0  0  0
  256 650   0   6   0   0  2  0
  257   0   0   0   0   0  0  7
  258   0   0   0   0   0  0 10
  259  61   0   0   0   0  0  0
  260 728   3   0   0   7  0  0
  261  61   0   0   0   0  0  0
  262 650   0   6   0   0  2  0
  263   0   0   0   0   0  0  7
  264   0   0   0   0   0  0  9
  265  61   0   0   0   0  0  0
  266 728   2   0   0   8  0  0
  267  61   0   0   0   0  0  0
  268 650   0   6   0   0  2  0
  269   0   0   0   0   0  0  7
  270   0   0   0   0   0  0 10
  271  61   0   0   0   0  0  0
  272 728   3   0   0   9  0  0
  273  61   0   0   0   0  0  0
  274 650   0   6   0   0  2  0
  275   0   0   0   0   0  0  7
  276   0   0   0   0   0  0  9
  277  61   0   0   0   0  0  0
  278 728   2   0   0   5  0  0
  279  61   0   0   0   0  0  0
  280 650   0   6   0   0  2  0
  281   0   0   0   0   0  0  7
  282   0   0   0   0   0  0 10
  283  61   0   0   0   0  0  0
  284 728   3   0   0   7  0  0
  285  61   0   0   0   0  0  0
  286 650   0   6   0   0  2  0
  287   0   0   0   0   0  0  7
  288   0   0   0   0   0  0  9
  289  61   0   0   0   0  0  0
  290 728   2   0   0   8  0  0
  291  61   0   0   0   0  0  0
  292 650   0   6   0   0  2  0
  293   0   0   0   0   0  0  7
  294   0   0   0   0   0  0 10
  295  61   0   0   0   0  0  0
[RF]
1      395.033 1 2 0 160 -3733.33 0
2      789.964 1 2 0 2390 -1866.67 1.5708
3      789.964 1 2 0 2390 1866.67 1.5708
4      395.033 1 2 0 160 -3733.33 3.14159
5      395.033 1 2 0 160 -3733.33 6.28319
6      395.033 1 2 0 160 -3733.33 7.10543e-15
7      395.033 1 2 0 160 -3733.33 1.42109e-14
8      395.033 1 2 0 160 -3733.33 2.13163e-14
9      395.033 1 2 0 160 -3733.33 2.84217e-14

# Format of arbitrary gradients:
#   time_shape_id of 0 means default timing (stepping with grad_raster starting at 1/2 of grad_raster)
# id amplitude amp_shape_id time_shape_id delay
# ..      Hz/m       ..         ..          us
[GRADIENTS]
5       637959 3 4 0
7      -637959 3 4 0
8       318979 5 4 0
9      -318979 5 4 0

# Format of trapezoid gradients:
# id amplitude rise flat fall delay
# ..      Hz/m   us   us   us    us
[TRAP]
 1       266667 160 2500 160   0
 2       629883 370   30 370   0
 3       595238 350   70 350   0
 4      -633333 380  180 380   0
 6        78125  50 6400  50   0
10       635176 380  810 380   0
11      -595238 350   70 350   0
12       628931 370  160 370   0
13       559234 330  110 330   0
14       526361 310  150 310   0
15       506785 300  170 300   0
16       488025 290  190 290   0
17       470031 280  210 280   0
18       452756 270  230 270   0
19       436159 260  250 260   0
20       420200 250  270 250   0
21       404843 240  290 240   0
22       390055 230  310 230   0
23       382765 230  310 230   0
24       368647 220  330 220   0
25       355034 210  350 210   0
26       348003 210  350 210   0
27       334991 200  370 200   0
28       322427 190  390 190   0
29       315639 190  390 190   0
30       303617 180  410 180   0
31       296944 180  410 180   0
32       285433 170  430 170   0
33       278871 170  430 170   0
34       267846 160  450 160   0
35       261392 160  450 160   0
36       250826 150  470 150   0
37       244475 150  470 150   0
38       234346 140  490 140   0
39       228096 140  490 140   0
40       218381 130  510 130   0
41       212229 130  510 130   0
42       202907 120  530 120   0
43       196850 120  530 120   0
44       190793 120  530 120   0
45       181937 110  550 110   0
46       175972 110  550 110   0
47       167470 100  570 100   0
48       161594 100  570 100   0
49       155717 100  570 100   0
50       147638  90  590  90   0
51       141848  90  590  90   0
52       134087  80  610  80   0
53       128381  80  610  80   0
54       122675  80  610  80   0
55       115298  70  630  70   0
56       109674  70  630  70   0
57       104049  70  630  70   0
58      97038.9  60  650  60   0
59      91493.8  60  650  60   0
60        84755  50  670  50   0
61        79287  50  670  50   0
62      73818.9  50  670  50   0
63      67414.5  40  690  40   0
64      62021.4  40  690  40   0
65      56628.2  40  690  40   0
66      50542.7  30  710  30   0
67      45222.4  30  710  30   0
68      39902.1  30  710  30   0
69      34581.8  30  710  30   0
70      28871.4  20  730  20   0
71        23622  20  730  20   0
72      18372.7  20  730  20   0
73      12950.7  10  750  10   0
74      7770.41  10  750  10   0
75      2590.14  10  750  10   0
76     -2590.14  10  750  10   0
77     -7770.41  10  750  10   0
78     -12950.7  10  750  10   0
79     -18372.7  20  730  20   0
80       -23622  20  730  20   0
81     -28871.4  20  730  20   0
82     -34581.8  30  710  30   0
83     -39902.1  30  710  30   0
84     -45222.4  30  710  30   0
85     -50542.7  30  710  30   0
86     -56628.2  40  690  40   0
87     -62021.4  40  690  40   0
88     -67414.5  40  690  40   0
89     -73818.9  50  670  50   0
90       -79287  50  670  50   0
91       -84755  50  670  50   0
92     -91493.8  60  650  60   0
93     -97038.9  60  650  60   0
94      -104049  70  630  70   0
95      -109674  70  630  70   0
96      -115298  70  630  70   0
97      -122675  80  610  80   0
98      -128381  80  610  80   0
99      -134087  80  610  80   0
100      -141848  90  590  90   0
101      -147638  90  590  90   0
102      -155717 100  570 100   0
103      -161594 100  570 100   0
104      -167470 100  570 100   0
105      -175972 110  550 110   0
106      -181937 110  550 110   0
107      -190793 120  530 120   0
108      -196850 120  530 120   0
109      -202907 120  530 120   0
110      -212229 130  510 130   0
111      -218381 130  510 130   0
112      -228096 140  490 140   0
113      -234346 140  490 140   0
114      -244475 150  470 150   0
115      -250826 150  470 150   0
116      -261392 160  450 160   0
117      -267846 160  450 160   0
118      -278871 170  430 170   0
119      -285433 170  430 170   0
120      -296944 180  410 180   0
121      -303617 180  410 180   0
122      -315639 190  390 190   0
123      -322427 190  390 190   0
124      -334991 200  370 200   0
125      -348003 210  350 210   0
126      -355034 210  350 210   0
127      -368647 220  330 220   0
128      -382765 230  310 230   0
129      -390055 230  310 230   0
130      -404843 240  290 240   0
131      -420200 250  270 250   0
132      -436159 260  250 260   0
133      -452756 270  230 270   0
134      -470031 280  210 280   0
135      -488025 290  190 290   0
136      -506785 300  170 300   0
137      -526361 310  150 310   0
138      -559234 330  110 330   0

# Format of ADC events:
# id num dwell delay freq phase
# ..  ..    ns    us   Hz   rad
[ADC]
1 128 50000 50 0 0
2 128 50000 50 0 3.14159
3 128 50000 50 0 6.28319
4 128 50000 50 0 7.10543e-15
5 128 50000 50 0 1.42109e-14
6 128 50000 50 0 2.13163e-14
7 128 50000 50 0 2.84217e-14

# Format of extension lists:
# id type ref next_id
# next_id of 0 terminates the list
# Extension list is followed by extension specifications
[EXTENSIONS]
1 1 1 0
2 1 2 0
3 1 3 0
4 1 4 0
5 1 5 0
6 1 6 0
7 2 1 0
8 1 7 0
9 1 8 0
10 1 9 0
11 1 10 0
12 1 11 0
13 1 12 0
14 1 13 0
15 1 14 0
16 1 15 0
17 1 16 0
18 1 17 0
19 1 18 0
20 1 19 0
21 1 20 0
22 1 21 0
23 1 22 0
24 1 23 0
25 1 24 0
26 1 25 0
27 1 26 0
28 1 27 0
29 1 28 0
30 1 29 0
31 1 30 0
32 1 31 0
33 1 32 0
34 1 33 0
35 1 34 0
36 1 35 0
37 1 36 0
38 1 37 0
39 1 38 0
40 1 39 0
41 1 40 0
42 1 41 0
43 1 42 0
44 1 43 0
45 1 44 0
46 1 45 0
47 1 46 0
48 1 47 0
49 1 48 0
50 1 49 0
51 1 50 0
52 1 51 0
53 1 52 0
54 1 53 0
55 1 54 0
56 1 55 0
57 1 56 0
58 1 57 0
59 1 58 0
60 1 59 0
61 1 60 0
62 1 61 0
63 1 62 0
64 1 63 0
65 1 64 0
66 1 65 0
67 1 66 0
68 1 67 0
69 1 68 0
70 1 69 0
71 1 70 0
72 1 71 0
73 1 72 0
74 1 73 0
75 1 74 0
76 1 75 0
77 1 76 0
78 1 77 0
79 1 78 0
80 1 79 0
81 1 80 0
82 1 81 0
83 1 82 0
84 1 83 0
85 1 84 0
86 1 85 0
87 1 86 0
88 1 87 0
89 1 88 0
90 1 89 0
91 1 90 0
92 1 91 0
93 1 92 0
94 1 93 0
95 1 94 0
96 1 95 0
97 1 96 0
98 1 97 0
99 1 98 0
100 1 99 0
101 1 100 0
102 1 101 0
103 1 102 0
104 1 103 0
105 1 104 0
106 1 105 0
107 1 106 0
108 1 107 0
109 1 108 0
110 1 109 0
111 1 110 0
112 1 111 0
113 1 112 0
114 1 113 0
115 1 114 0
116 1 115 0
117 1 116 0
118 1 117 0
119 1 118 0
120 1 119 0
121 1 120 0
122 1 121 0
123 1 122 0
124 1 123 0
125 1 124 0
126 1 125 0
127 1 126 0
128 1 127 0
129 1 128 0
130 1 129 0
131 1 130 0
132 1 131 0
133 1 132 0
134 1 133 0

# Extension specification for setting labels:
# id set labelstring
extension LABELSET 1
1 1 REV
2 0 PAR
3 0 AVG
4 0 SLC
5 0 SET
6 0 LIN
7 127 LIN
8 1 LIN
9 126 LIN
10 2 LIN
11 125 LIN
12 3 LIN
13 124 LIN
14 4 LIN
15 123 LIN
16 5 LIN
17 122 LIN
18 6 LIN
19 121 LIN
20 7 LIN
21 120 LIN
22 8 LIN
23 119 LIN
24 9 LIN
25 118 LIN
26 10 LIN
27 117 LIN
28 11 LIN
29 116 LIN
30 12 LIN
31 115 LIN
32 13 LIN
33 114 LIN
34 14 LIN
35 113 LIN
36 15 LIN
37 112 LIN
38 16 LIN
39 111 LIN
40 17 LIN
41 110 LIN
42 18 LIN
43 109 LIN
44 19 LIN
45 108 LIN
46 20 LIN
47 107 LIN
48 21 LIN
49 106 LIN
50 22 LIN
51 105 LIN
52 23 LIN
53 104 LIN
54 24 LIN
55 103 LIN
56 25 LIN
57 102 LIN
58 26 LIN
59 101 LIN
60 27 LIN
61 100 LIN
62 28 LIN
63 99 LIN
64 29 LIN
65 98 LIN
66 30 LIN
67 97 LIN
68 31 LIN
69 96 LIN
70 32 LIN
71 95 LIN
72 33 LIN
73 94 LIN
74 34 LIN
75 93 LIN
76 35 LIN
77 92 LIN
78 36 LIN
79 91 LIN
80 37 LIN
81 90 LIN
82 38 LIN
83 89 LIN
84 39 LIN
85 88 LIN
86 40 LIN
87 87 LIN
88 41 LIN
89 86 LIN
90 42 LIN
91 85 LIN
92 43 LIN
93 84 LIN
94 44 LIN
95 83 LIN
96 45 LIN
97 82 LIN
98 46 LIN
99 81 LIN
100 47 LIN
101 80 LIN
102 48 LIN
103 79 LIN
104 49 LIN
105 78 LIN
106 50 LIN
107 77 LIN
108 51 LIN
109 76 LIN
110 52 LIN
111 75 LIN
112 53 LIN
113 74 LIN
114 54 LIN
115 73 LIN
116 55 LIN
117 72 LIN
118 56 LIN
119 71 LIN
120 57 LIN
121 70 LIN
122 58 LIN
123 69 LIN
124 59 LIN
125 68 LIN
126 60 LIN
127 67 LIN
128 61 LIN
129 66 LIN
130 62 LIN
131 65 LIN
132 63 LIN
133 64 LIN

# Extension specification for setting labels:
# id set labelstring
extension LABELINC 2
1 1 SET

# Sequence Shapes
[SHAPES]

shape_id 1
num_samples 2500
1.57976903e-10
4.26875233e-09
1.97782093e-08
5.43134016e-08
1.15524076e-07
2.11082041e-07
3.48680538e-07
5.36033601e-07
7.8087542e-07
1.0909597e-06
1.47405902e-06
1.93796417e-06
2.49048354e-06
3.13944243e-06
3.89268239e-06
4.75806061e-06
5.74344921e-06
6.85673462e-06
8.10581688e-06
9.49860898e-06
1.10430362e-05
1.27470355e-05
1.46185547e-05
1.66655519e-05
1.88959948e-05
2.13178601e-05
2.39391324e-05
2.67678044e-05
2.9811875e-05
3.30793498e-05
3.65782395e-05
4.03165599e-05
4.43023306e-05
4.85435747e-05
5.3048318e-05
5.78245882e-05
6.28804145e-05
6.82238264e-05
7.38628534e-05
7.98055242e-05
8.60598659e-05
9.26339033e-05
9.95356584e-05
0.000106773149
0.00011435439
0.000122287389
0.000130580148
0.000139240666
0.000148276929
0.000157696921
0.000167508611
0.000177719965
0.000188338933
0.000199373458
0.000210831471
0.000222720888
0.000235049614
0.000247825541
0.000261056544
0.000274750485
0.000288915208
0.000303558542
0.000318688297
0.000334312266
0.000350438223
0.00036707392
0.000384227091
0.00040190545
0.000420116685
0.000438868464
0.000458168432
0.000478024208
0.000498443388
0.000519433541
0.00054100221
0.000563156911
0.000585905132
0.000609254334
0.000633211945
0.000657785366
0.000682981967
0.000708809084
0.000735274025
0.000762384059
0.000790146428
0.000818568333
0.000847656944
0.000877419394
0.000907862779
0.000938994156
0.000970820547
0.00100334893
0.00103658625
0.00107053941
0.00110521526
0.00114062063
0.00117676229
0.00121364697
0.00125128135
0.00128967209
0.00132882578
0.00136874897
0.00140944815
0.0014509298
0.00149320031
0.00153626605
0.00158013332
0.00162480838
0.00167029743
0.00171660663
0.00176374208
0.00181170982
0.00186051586
0.00191016612
0.00196066649
0.00201202279
0.00206424079
0.00211732621
0.00217128468
0.00222612182
0.00228184314
0.00233845412
0.00239596017
0.00245436663
0.0025136788
0.00257390189
0.00263504106
0.0026971014
0.00276008794
0.00282400563
0.00288885938
0.002954654
0.00302139426
0.00308908483
0.00315773035
0.00322733535
0.00329790431
0.00336944164
0.00344195167
0.00351543866
0.00358990679
0.00366536017
0.00374180285
0.00381923877
0.00389767183
0.00397710582
0.00405754448
0.00413899146
0.00422145033
0.00430492458
0.00438941762
0.00447493278
0.00456147331
0.00464904237
0.00473764306
0.00482727837
0.00491795121
0.00500966443
0.00510242075
0.00519622285
0.0052910733
0.00538697459
0.0054839291
0.00558193917
0.00568100699
0.00578113472
0.00588232439
0.00598457795
0.00608789726
0.00619228409
0.00629774012
0.00640426694
0.00651186602
0.00662053877
0.00673028648
0.00684111037
0.00695301155
0.00706599102
0.00718004971
0.00729518843
0.00741140791
0.00752870877
0.00764709154
0.00776655664
0.0078871044
0.00800873504
0.00813144869
0.00825524536
0.00838012499
0.00850608739
0.00863313228
0.00876125926
0.00889046784
0.00902075744
0.00915212735
0.00928457676
0.00941810476
0.00955271034
0.00968839236
0.00982514961
0.00996298073
0.0101018843
0.0102418587
0.0103829024
0.0105250135
0.0106681901
0.0108124303
0.010957732
0.0111040929
0.0112515108
0.0113999831
0.0115495073
0.0117000809
0.0118517009
0.0120043646
0.0121580688
0.0123128106
0.0124685867
0.0126253936
0.0127832281
0.0129420864
0.0131019649
0.0132628599
0.0134247673
0.0135876832
0.0137516034
0.0139165236
0.0140824394
0.0142493464
0.0144172398
0.014586115
0.0147559672
0.0149267912
0.0150985821
0.0152713346
0.0154450433
0.0156197029
0.0157953076
0.015971852
0.01614933
0.0163277358
0.0165070634
0.0166873065
0.0168684588
0.017050514
0.0172334654
0.0174173064
0.0176020303
0.01778763
0.0179740987
0.018161429
0.0183496138
0.0185386456
0.0187285169
0.0189192201
0.0191107474
0.0193030909
0.0194962426
0.0196901943
0.0198849378
0.0200804647
0.0202767665
0.0204738345
0.02067166
0.020870234
0.0210695477
0.0212695918
0.0214703572
0.0216718343
0.0218740138
0.0220768859
0.022280441
0.0224846691
0.0226895603
0.0228951043
0.0231012911
0.0233081101
0.023515551
0.023723603
0.0239322554
0.0241414974
0.0243513179
0.0245617058
0.02477265
0.0249841389
0.0251961612
0.0254087051
0.025621759
0.0258353111
0.0260493492
0.0262638613
0.0264788352
0.0266942584
0.0269101186
0.0271264031
0.0273430992
0.0275601941
0.0277776747
0.0279955279
0.0282137406
0.0284322995
0.0286511909
0.0288704015
0.0290899174
0.0293097248
0.0295298098
0.0297501584
0.0299707563
0.0301915892
0.0304126427
0.0306339022
0.0308553532
0.0310769807
0.0312987699
0.0315207058
0.0317427732
0.0319649568
0.0321872413
0.0324096112
0.0326320508
0.0328545445
0.0330770763
0.0332996304
0.0335221905
0.0337447406
0.0339672644
0.0341897453
0.0344121668
0.0346345124
0.0348567651
0.0350789082
0.0353009246
0.0355227973
0.0357445089
0.0359660423
0.0361873798
0.036408504
0.0366293972
0.0368500416
0.0370704194
0.0372905125
0.0375103028
0.0377297721
0.0379489021
0.0381676744
0.0383860703
0.0386040714
0.0388216588
0.0390388137
0.039255517
0.0394717499
0.039687493
0.0399027271
0.0401174329
0.0403315908
0.0405451813
0.0407581847
0.0409705812
0.041182351
0.041393474
0.0416039303
0.0418136995
0.0420227615
0.0422310958
0.042438682
0.0426454996
0.0428515278
0.043056746
0.0432611332
0.0434646686
0.0436673311
0.0438690995
0.0440699527
0.0442698694
0.0444688281
0.0446668074
0.0448637857
0.0450597413
0.0452546525
0.0454484975
0.0456412543
0.0458329009
0.0460234152
0.0462127751
0.0464009583
0.0465879425
0.0467737052
0.046958224
0.0471414762
0.0473234392
0.0475040902
0.0476834065
0.0478613652
0.0480379432
0.0482131176
0.0483868652
0.0485591629
0.0487299873
0.0488993151
0.049067123
0.0492333875
0.0493980849
0.0495611917
0.0497226843
0.0498825388
0.0500407314
0.0501972383
0.0503520356
0.0505050992
0.050656405
0.0508059289
0.0509536468
0.0510995343
0.0512435672
0.0513857211
0.0515259716
0.0516642942
0.0518006643
0.0519350574
0.0520674488
0.0521978139
0.0523261278
0.0524523658
0.0525765031
0.0526985147
0.0528183758
0.0529360612
0.053051546
0.0531648051
0.0532758134
0.0533845457
0.0534909768
0.0535950815
0.0536968344
0.0537962103
0.0538931838
0.0539877294
0.0540798218
0.0541694355
0.0542565449
0.0543411246
0.0544231489
0.0545025924
0.0545794292
0.0546536339
0.0547251807
0.0547940438
0.0548601977
0.0549236164
0.0549842743
0.0550421455
0.0550972042
0.0551494246
0.0551987808
0.0552452469
0.055288797
0.0553294052
0.0553670457
0.0554016923
0.0554333193
0.0554619006
0.0554874103
0.0555098224
0.0555291109
0.0555452498
0.0555582131
0.0555679749
0.055574509
0.0555777895
0.0555777905
0.0555744858
0.0555678495
0.0555578555
0.055544478
0.0555276908
0.055507468
0.0554837836
0.0554566116
0.0554259261
0.0553917012
0.0553539108
0.0553125291
0.0552675301
0.055218888
0.0551665768
0.0551105707
0.0550508439
0.0549873706
0.0549201248
0.0548490809
0.0547742132
0.0546954957
0.054612903
0.0545264093
0.0544359888
0.0543416162
0.0542432656
0.0541409116
0.0540345287
0.0539240914
0.0538095742
0.0536909517
0.0535681986
0.0534412894
0.053310199
0.053174902
0.0530353732
0.0528915875
0.0527435198
0.052591145
0.052434438
0.0522733739
0.0521079278
0.0519380747
0.0517637899
0.0515850486
0.0514018261
0.0512140977
0.0510218388
0.050825025
0.0506236316
0.0504176344
0.0502070089
0.0499917308
0.049771776
0.0495471203
0.0493177395
0.0490836097
0.048844707
0.0486010073
0.048352487
0.0480991223
0.0478408895
0.047577765
0.0473097254
0.0470367472
0.0467588071
0.0464758818
0.0461879481
0.045894983
0.0455969633
0.0452938663
0.0449856689
0.0446723486
0.0443538826
0.0440302483
0.0437014233
0.0433673852
0.0430281117
0.0426835806
0.0423337697
0.0419786572
0.0416182211
0.0412524395
0.0408812908
0.0405047535
0.0401228059
0.0397354267
0.0393425947
0.0389442886
0.0385404875
0.0381311702
0.0377163161
0.0372959043
0.0368699143
0.0364383256
0.0360011177
0.0355582704
0.0351097635
0.0346555771
0.0341956912
0.033730086
0.0332587419
0.0327816392
0.0322987587
0.031810081
0.031315587
0.0308152576
0.0303090739
0.0297970172
0.0292790688
0.0287552102
0.028225423
0.0276896891
0.0271479902
0.0266003086
0.0260466262
0.0254869256
0.024921189
0.0243493992
0.0237715388
0.0231875909
0.0225975383
0.0220013643
0.0213990523
0.0207905856
0.020175948
0.0195551232
0.0189280952
0.0182948481
0.017655366
0.0170096335
0.016357635
0.0156993552
0.0150347792
0.0143638918
0.0136866782
0.0130031239
0.0123132144
0.0116169353
0.0109142724
0.0102052119
0.00948973982
0.00876784257
0.00803950667
0.00730471879
0.0065634658
0.00581573473
0.00506151278
0.00430078734
0.00353354594
0.00275977634
0.00197946642
0.00119260427
0.00039917816
0.000400823472
0.001207412
0.00202059863
0.00284039436
0.00366681003
0.00449985627
0.00533954356
0.00618588216
0.00703888216
0.00789855346
0.00876490576
0.00963794859
0.0105176913
0.0114041429
0.0122973125
0.0131972088
0.0141038403
0.0150172155
0.0159373424
0.016864229
0.0177978832
0.0187383124
0.0196855241
0.0206395254
0.0216003233
0.0225679246
0.0235423358
0.0245235634
0.0255116134
0.0265064918
0.0275082045
0.0285167568
0.0295321542
0.0305544018
0.0315835046
0.0326194671
0.033662294
0.0347119895
0.0357685578
0.0368320026
0.0379023276
0.0389795363
0.0400636319
0.0411546175
0.0422524957
0.0433572693
0.0444689405
0.0455875115
0.0467129843
0.0478453605
0.0489846417
0.0501308291
0.0512839238
0.0524439266
0.0536108381
0.0547846587
0.0559653885
0.0571530276
0.0583475756
0.059549032
0.0607573961
0.0619726669
0.0631948433
0.0644239238
0.0656599068
0.0669027904
0.0681525726
0.069409251
0.070672823
0.0719432859
0.0732206367
0.0745048722
0.0757959888
0.0770939828
0.0783988504
0.0797105873
0.0810291892
0.0823546515
0.0836869692
0.0850261372
0.0863721503
0.0877250028
0.0890846891
0.0904512029
0.0918245381
0.0932046881
0.0945916463
0.0959854055
0.0973859587
0.0987932983
0.100207417
0.101628306
0.103055958
0.104490364
0.105931516
0.107379404
0.10883402
0.110295354
0.111763397
0.113238139
0.11471957
0.116207679
0.117702455
0.119203889
0.120711969
0.122226684
0.123748022
0.125275971
0.12681052
0.128351656
0.129899367
0.131453639
0.133014461
0.134581819
0.136155699
0.137736088
0.139322972
0.140916336
0.142516166
0.144122448
0.145735167
0.147354307
0.148979853
0.15061179
0.152250102
0.153894772
0.155545784
0.157203122
0.158866768
0.160536707
0.16221292
0.163895389
0.165584098
0.167279028
0.168980161
0.170687477
0.17240096
0.174120589
0.175846345
0.177578209
0.179316161
0.181060181
0.18281025
0.184566345
0.186328448
0.188096537
0.18987059
0.191650587
0.193436506
0.195228324
0.197026021
0.198829573
0.200638958
0.202454153
0.204275135
0.206101881
0.207934368
0.209772571
0.211616466
0.21346603
0.215321238
0.217182066
0.219048487
0.220920478
0.222798012
0.224681065
0.22656961
0.228463621
0.230363073
0.232267938
0.234178189
0.2360938
0.238014744
0.239940992
0.241872518
0.243809293
0.24575129
0.24769848
0.249650834
0.251608323
0.253570919
0.255538592
0.257511313
0.259489053
0.26147178
0.263459465
0.265452078
0.267449588
0.269451965
0.271459176
0.273471192
0.27548798
0.277509509
0.279535747
0.281566662
0.283602222
0.285642393
0.287687144
0.289736441
0.291790251
0.293848542
0.295911278
0.297978427
0.300049954
0.302125825
0.304206006
0.306290462
0.308379158
0.31047206
0.312569132
0.314670338
0.316775643
0.318885011
0.320998406
0.323115792
0.325237133
0.327362391
0.329491529
0.331624512
0.333761301
0.33590186
0.338046149
0.340194133
0.342345772
0.344501029
0.346659865
0.348822242
0.35098812
0.353157462
0.355330227
0.357506377
0.359685871
0.361868671
0.364054737
0.366244028
