# Pulseq sequence file
# Created by PyPulseq

[VERSION]
major 1
minor 4
revision 0

[DEFINITIONS]
AdcRasterTime 1e-07 
BlockDurationRaster 1e-05 
FA 1.571 
FOV 0.256 0.256 0.006 
GradientRasterTime 1e-05 
Name mese2d 
RadiofrequencyRasterTime 1e-06 
ReconMatrixSize 128 128 1 
SliceOrientation TRA 
TE 0.015 0.03 0.045 0.06 0.075 0.09 0.105 0.12 0.135 0.15 0.165 0.18 0.195 0.21 0.225 0.24 0.255 0.27 0.285 0.3 0.315 0.33 0.345 0.36 0.375 0.39 0.405 0.42 0.435 0.45 0.465 0.48 
TR 5 

# Format of blocks:
# NUM DUR RF  GX  GY  GZ  ADC  EXT
[BLOCKS]
    1   0   0   0   0   0  0  1
    2   0   0   0   0   0  0  2
    3   0   0   0   0   0  0  3
    4   0   0   0   0   0  0  4
    5 282   1   0   0   1  0  0
    6  94   0   2   0   3  0  0
    7   0   0   0   0   0  0  5
    8   0   0   0   0   0  0  6
    9 256   0   0   0   0  0  0
   10 518   2   0   0   4  0  0
   11  89   0   0   0   0  0  0
   12  77   0   0   5   0  0  0
   13 650   0   6   0   0  1  0
   14  77   0   0   7   0  0  0
   15   0   0   0   0   0  0  7
   16   0   0   0   0   0  0  6
   17 166   0   0   0   0  0  0
   18 518   2   0   0   4  0  0
   19  89   0   0   0   0  0  0
   20  77   0   0   5   0  0  0
   21 650   0   6   0   0  1  0
   22  77   0   0   7   0  0  0
   23   0   0   0   0   0  0  7
   24   0   0   0   0   0  0  6
   25 166   0   0   0   0  0  0
   26 518   2   0   0   4  0  0
   27  89   0   0   0   0  0  0
   28  77   0   0   5   0  0  0
   29 650   0   6   0   0  1  0
   30  77   0   0   7   0  0  0
   31   0   0   0   0   0  0  7
   32   0   0   0   0   0  0  6
   33 166   0   0   0   0  0  0
   34 518   2   0   0   4  0  0
   35  89   0   0   0   0  0  0
   36  77   0   0   5   0  0  0
   37 650   0   6   0   0  1  0
   38  77   0   0   7   0  0  0
   39   0   0   0   0   0  0  7
   40   0   0   0   0   0  0  6
   41 166   0   0   0   0  0  0
   42 518   2   0   0   4  0  0
   43  89   0   0   0   0  0  0
   44  77   0   0   5   0  0  0
   45 650   0   6   0   0  1  0
   46  77   0   0   7   0  0  0
   47   0   0   0   0   0  0  7
   48   0   0   0   0   0  0  6
   49 166   0   0   0   0  0  0
   50 518   2   0   0   4  0  0
   51  89   0   0   0   0  0  0
   52  77   0   0   5   0  0  0
   53 650   0   6   0   0  1  0
   54  77   0   0   7   0  0  0
   55   0   0   0   0   0  0  7
   56   0   0   0   0   0  0  6
   57 166   0   0   0   0  0  0
   58 518   2   0   0   4  0  0
   59  89   0   0   0   0  0  0
   60  77   0   0   5   0  0  0
   61 650   0   6   0   0  1  0
   62  77   0   0   7   0  0  0
   63   0   0   0   0   0  0  7
   64   0   0   0   0   0  0  6
   65 166   0   0   0   0  0  0
   66 518   2   0   0   4  0  0
   67  89   0   0   0   0  0  0
   68  77   0   0   5   0  0  0
   69 650   0   6   0   0  1  0
   70  77   0   0   7   0  0  0
   71   0   0   0   0   0  0  7
   72   0   0   0   0   0  0  6
   73 166   0   0   0   0  0  0
   74 518   2   0   0   4  0  0
   75  89   0   0   0   0  0  0
   76  77   0   0   5   0  0  0
   77 650   0   6   0   0  1  0
   78  77   0   0   7   0  0  0
   79   0   0   0   0   0  0  7
   80   0   0   0   0   0  0  6
   81 166   0   0   0   0  0  0
   82 518   2   0   0   4  0  0
   83  89   0   0   0   0  0  0
   84  77   0   0   5   0  0  0
   85 650   0   6   0   0  1  0
   86  77   0   0   7   0  0  0
   87   0   0   0   0   0  0  7
   88   0   0   0   0   0  0  6
   89 166   0   0   0   0  0  0
   90 518   2   0   0   4  0  0
   91  89   0   0   0   0  0  0
   92  77   0   0   5   0  0  0
   93 650   0   6   0   0  1  0
   94  77   0   0   7   0  0  0
   95   0   0   0   0   0  0  7
   96   0   0   0   0   0  0  6
   97 166   0   0   0   0  0  0
   98 518   2   0   0   4  0  0
   99  89   0   0   0   0  0  0
  100  77   0   0   5   0  0  0
  101 650   0   6   0   0  1  0
  102  77   0   0   7   0  0  0
  103   0   0   0   0   0  0  7
  104   0   0   0   0   0  0  6
  105 166   0   0   0   0  0  0
  106 518   2   0   0   4  0  0
  107  89   0   0   0   0  0  0
  108  77   0   0   5   0  0  0
  109 650   0   6   0   0  1  0
  110  77   0   0   7   0  0  0
  111   0   0   0   0   0  0  7
  112   0   0   0   0   0  0  6
  113 166   0   0   0   0  0  0
  114 518   2   0   0   4  0  0
  115  89   0   0   0   0  0  0
  116  77   0   0   5   0  0  0
  117 650   0   6   0   0  1  0
  118  77   0   0   7   0  0  0
  119   0   0   0   0   0  0  7
  120   0   0   0   0   0  0  6
  121 166   0   0   0   0  0  0
  122 518   2   0   0   4  0  0
  123  89   0   0   0   0  0  0
  124  77   0   0   5   0  0  0
  125 650   0   6   0   0  1  0
  126  77   0   0   7   0  0  0
  127   0   0   0   0   0  0  7
  128   0   0   0   0   0  0  6
  129 166   0   0   0   0  0  0
  130 518   2   0   0   4  0  0
  131  89   0   0   0   0  0  0
  132  77   0   0   5   0  0  0
  133 650   0   6   0   0  1  0
  134  77   0   0   7   0  0  0
  135   0   0   0   0   0  0  7
  136   0   0   0   0   0  0  6
  137 166   0   0   0   0  0  0
  138 518   2   0   0   4  0  0
  139  89   0   0   0   0  0  0
  140  77   0   0   5   0  0  0
  141 650   0   6   0   0  1  0
  142  77   0   0   7   0  0  0
  143   0   0   0   0   0  0  7
  144   0   0   0   0   0  0  6
  145 166   0   0   0   0  0  0
  146 518   2   0   0   4  0  0
  147  89   0   0   0   0  0  0
  148  77   0   0   5   0  0  0
  149 650   0   6   0   0  1  0
  150  77   0   0   7   0  0  0
  151   0   0   0   0   0  0  7
  152   0   0   0   0   0  0  6
  153 166   0   0   0   0  0  0
  154 518   2   0   0   4  0  0
  155  89   0   0   0   0  0  0
  156  77   0   0   5   0  0  0
  157 650   0   6   0   0  1  0
  158  77   0   0   7   0  0  0
  159   0   0   0   0   0  0  7
  160   0   0   0   0   0  0  6
  161 166   0   0   0   0  0  0
  162 518   2   0   0   4  0  0
  163  89   0   0   0   0  0  0
  164  77   0   0   5   0  0  0
  165 650   0   6   0   0  1  0
  166  77   0   0   7   0  0  0
  167   0   0   0   0   0  0  7
  168   0   0   0   0   0  0  6
  169 166   0   0   0   0  0  0
  170 518   2   0   0   4  0  0
  171  89   0   0   0   0  0  0
  172  77   0   0   5   0  0  0
  173 650   0   6   0   0  1  0
  174  77   0   0   7   0  0  0
  175   0   0   0   0   0  0  7
  176   0   0   0   0   0  0  6
  177 166   0   0   0   0  0  0
  178 518   2   0   0   4  0  0
  179  89   0   0   0   0  0  0
  180  77   0   0   5   0  0  0
  181 650   0   6   0   0  1  0
  182  77   0   0   7   0  0  0
  183   0   0   0   0   0  0  7
  184   0   0   0   0   0  0  6
  185 166   0   0   0   0  0  0
  186 518   2   0   0   4  0  0
  187  89   0   0   0   0  0  0
  188  77   0   0   5   0  0  0
  189 650   0   6   0   0  1  0
  190  77   0   0   7   0  0  0
  191   0   0   0   0   0  0  7
  192   0   0   0   0   0  0  6
  193 166   0   0   0   0  0  0
  194 518   2   0   0   4  0  0
  195  89   0   0   0   0  0  0
  196  77   0   0   5   0  0  0
  197 650   0   6   0   0  1  0
  198  77   0   0   7   0  0  0
  199   0   0   0   0   0  0  7
  200   0   0   0   0   0  0  6
  201 166   0   0   0   0  0  0
  202 518   2   0   0   4  0  0
  203  89   0   0   0   0  0  0
  204  77   0   0   5   0  0  0
  205 650   0   6   0   0  1  0
  206  77   0   0   7   0  0  0
  207   0   0   0   0   0  0  7
  208   0   0   0   0   0  0  6
  209 166   0   0   0   0  0  0
  210 518   2   0   0   4  0  0
  211  89   0   0   0   0  0  0
  212  77   0   0   5   0  0  0
  213 650   0   6   0   0  1  0
  214  77   0   0   7   0  0  0
  215   0   0   0   0   0  0  7
  216   0   0   0   0   0  0  6
  217 166   0   0   0   0  0  0
  218 518   2   0   0   4  0  0
  219  89   0   0   0   0  0  0
  220  77   0   0   5   0  0  0
  221 650   0   6   0   0  1  0
  222  77   0   0   7   0  0  0
  223   0   0   0   0   0  0  7
  224   0   0   0   0   0  0  6
  225 166   0   0   0   0  0  0
  226 518   2   0   0   4  0  0
  227  89   0   0   0   0  0  0
  228  77   0   0   5   0  0  0
  229 650   0   6   0   0  1  0
  230  77   0   0   7   0  0  0
  231   0   0   0   0   0  0  7
  232   0   0   0   0   0  0  6
  233 166   0   0   0   0  0  0
  234 518   2   0   0   4  0  0
  235  89   0   0   0   0  0  0
  236  77   0   0   5   0  0  0
  237 650   0   6   0   0  1  0
  238  77   0   0   7   0  0  0
  239   0   0   0   0   0  0  7
  240   0   0   0   0   0  0  6
  241 166   0   0   0   0  0  0
  242 518   2   0   0   4  0  0
  243  89   0   0   0   0  0  0
  244  77   0   0   5   0  0  0
  245 650   0   6   0   0  1  0
  246  77   0   0   7   0  0  0
  247   0   0   0   0   0  0  7
  248   0   0   0   0   0  0  6
  249 166   0   0   0   0  0  0
  250 518   2   0   0   4  0  0
  251  89   0   0   0   0  0  0
  252  77   0   0   5   0  0  0
  253 650   0   6   0   0  1  0
  254  77   0   0   7   0  0  0
  255   0   0   0   0   0  0  7
  256   0   0   0   0   0  0  6
  257 166   0   0   0   0  0  0
  258 518   2   0   0   4  0  0
  259  89   0   0   0   0  0  0
  260  77   0   0   5   0  0  0
  261 650   0   6   0   0  1  0
  262  77   0   0   7   0  0  0
  263 157   0   8   0   9  0  0
  264 451518   0   0   0   0  0  0
  265 282   1   0   0   1  0  0
  266  94   0   2   0   3  0  0
  267   0   0   0   0   0  0  5
  268   0   0   0   0   0  0  8
  269 256   0   0   0   0  0  0
  270 518   2   0   0   4  0  0
  271  89   0   0   0   0  0  0
  272  77   0   0  10   0  0  0
  273 650   0   6   0   0  1  0
  274  77   0   0  11   0  0  0
  275   0   0   0   0   0  0  7
  276   0   0   0   0   0  0  8
  277 166   0   0   0   0  0  0
  278 518   2   0   0   4  0  0
  279  89   0   0   0   0  0  0
  280  77   0   0  10   0  0  0
  281 650   0   6   0   0  1  0
  282  77   0   0  11   0  0  0
  283   0   0   0   0   0  0  7
  284   0   0   0   0   0  0  8
  285 166   0   0   0   0  0  0
  286 518   2   0   0   4  0  0
  287  89   0   0   0   0  0  0
  288  77   0   0  10   0  0  0
  289 650   0   6   0   0  1  0
  290  77   0   0  11   0  0  0
  291   0   0   0   0   0  0  7
  292   0   0   0   0   0  0  8
  293 166   0   0   0   0  0  0
  294 518   2   0   0   4  0  0
  295  89   0   0   0   0  0  0
[RF]
1      395.033 1 2 0 160 4533.33 -35.6047
2      789.964 1 2 0 1340 2266.67 -16.2316

# Format of arbitrary gradients:
#   time_shape_id of 0 means default timing (stepping with grad_raster starting at 1/2 of grad_raster)
# id amplitude amp_shape_id time_shape_id delay
# ..      Hz/m       ..         ..          us
[GRADIENTS]
4       635897 3 4 0

# Format of trapezoid gradients:
# id amplitude rise flat fall delay
# ..      Hz/m   us   us   us    us
[TRAP]
 1       266667 160 2500 160   0
 2       629883 370   30 370   0
 3      -633333 380  180 380   0
 5       595238 350   70 350   0
 6        78125  50 6400  50   0
 7      -595238 350   70 350   0
 8       635176 380  810 380   0
 9       628931 370  160 370   0
10       559234 330  110 330   0
11      -559234 330  110 330   0
12       526361 310  150 310   0
13      -526361 310  150 310   0
14       506785 300  170 300   0
15      -506785 300  170 300   0
16       488025 290  190 290   0
17      -488025 290  190 290   0
18       470031 280  210 280   0
19      -470031 280  210 280   0
20       452756 270  230 270   0
21      -452756 270  230 270   0
22       436159 260  250 260   0
23      -436159 260  250 260   0
24       420200 250  270 250   0
25      -420200 250  270 250   0
26       404843 240  290 240   0
27      -404843 240  290 240   0
28       390055 230  310 230   0
29      -390055 230  310 230   0
30       382765 230  310 230   0
31      -382765 230  310 230   0
32       368647 220  330 220   0
33      -368647 220  330 220   0
34       355034 210  350 210   0
35      -355034 210  350 210   0
36       348003 210  350 210   0
37      -348003 210  350 210   0
38       334991 200  370 200   0
39      -334991 200  370 200   0
40       322427 190  390 190   0
41      -322427 190  390 190   0
42       315639 190  390 190   0
43      -315639 190  390 190   0
44       303617 180  410 180   0
45      -303617 180  410 180   0
46       296944 180  410 180   0
47      -296944 180  410 180   0
48       285433 170  430 170   0
49      -285433 170  430 170   0
50       278871 170  430 170   0
51      -278871 170  430 170   0
52       267846 160  450 160   0
53      -267846 160  450 160   0
54       261392 160  450 160   0
55      -261392 160  450 160   0
56       250826 150  470 150   0
57      -250826 150  470 150   0
58       244475 150  470 150   0
59      -244475 150  470 150   0
60       234346 140  490 140   0
61      -234346 140  490 140   0
62       228096 140  490 140   0
63      -228096 140  490 140   0
64       218381 130  510 130   0
65      -218381 130  510 130   0
66       212229 130  510 130   0
67      -212229 130  510 130   0
68       202907 120  530 120   0
69      -202907 120  530 120   0
70       196850 120  530 120   0
71      -196850 120  530 120   0
72       190793 120  530 120   0
73      -190793 120  530 120   0
74       181937 110  550 110   0
75      -181937 110  550 110   0
76       175972 110  550 110   0
77      -175972 110  550 110   0
78       167470 100  570 100   0
79      -167470 100  570 100   0
80       161594 100  570 100   0
81      -161594 100  570 100   0
82       155717 100  570 100   0
83      -155717 100  570 100   0
84       147638  90  590  90   0
85      -147638  90  590  90   0
86       141848  90  590  90   0
87      -141848  90  590  90   0
88       134087  80  610  80   0
89      -134087  80  610  80   0
90       128381  80  610  80   0
91      -128381  80  610  80   0
92       122675  80  610  80   0
93      -122675  80  610  80   0
94       115298  70  630  70   0
95      -115298  70  630  70   0
96       109674  70  630  70   0
97      -109674  70  630  70   0
98       104049  70  630  70   0
99      -104049  70  630  70   0
100      97038.9  60  650  60   0
101     -97038.9  60  650  60   0
102      91493.8  60  650  60   0
103     -91493.8  60  650  60   0
104        84755  50  670  50   0
105       -84755  50  670  50   0
106        79287  50  670  50   0
107       -79287  50  670  50   0
108      73818.9  50  670  50   0
109     -73818.9  50  670  50   0
110      67414.5  40  690  40   0
111     -67414.5  40  690  40   0
112      62021.4  40  690  40   0
113     -62021.4  40  690  40   0
114      56628.2  40  690  40   0
115     -56628.2  40  690  40   0
116      50542.7  30  710  30   0
117     -50542.7  30  710  30   0
118      45222.4  30  710  30   0
119     -45222.4  30  710  30   0
120      39902.1  30  710  30   0
121     -39902.1  30  710  30   0
122      34581.8  30  710  30   0
123     -34581.8  30  710  30   0
124      28871.4  20  730  20   0
125     -28871.4  20  730  20   0
126        23622  20  730  20   0
127       -23622  20  730  20   0
128      18372.7  20  730  20   0
129     -18372.7  20  730  20   0
130      12950.7  10  750  10   0
131     -12950.7  10  750  10   0
132      7770.41  10  750  10   0
133     -7770.41  10  750  10   0
134      2590.14  10  750  10   0
135     -2590.14  10  750  10   0

# Format of ADC events:
# id num dwell delay freq phase
# ..  ..    ns    us   Hz   rad
[ADC]
1 128 50000 50 0 0

# Format of extension lists:
# id type ref next_id
# next_id of 0 terminates the list
# Extension list is followed by extension specifications
[EXTENSIONS]
1 1 1 0
2 1 2 0
3 1 3 0
4 1 4 0
5 1 5 0
6 1 6 0
7 2 1 0
8 1 7 0
9 1 8 0
10 1 9 0
11 1 10 0
12 1 11 0
13 1 12 0
14 1 13 0
15 1 14 0
16 1 15 0
17 1 16 0
18 1 17 0
19 1 18 0
20 1 19 0
21 1 20 0
22 1 21 0
23 1 22 0
24 1 23 0
25 1 24 0
26 1 25 0
27 1 26 0
28 1 27 0
29 1 28 0
30 1 29 0
31 1 30 0
32 1 31 0
33 1 32 0
34 1 33 0
35 1 34 0
36 1 35 0
37 1 36 0
38 1 37 0
39 1 38 0
40 1 39 0
41 1 40 0
42 1 41 0
43 1 42 0
44 1 43 0
45 1 44 0
46 1 45 0
47 1 46 0
48 1 47 0
49 1 48 0
50 1 49 0
51 1 50 0
52 1 51 0
53 1 52 0
54 1 53 0
55 1 54 0
56 1 55 0
57 1 56 0
58 1 57 0
59 1 58 0
60 1 59 0
61 1 60 0
62 1 61 0
63 1 62 0
64 1 63 0
65 1 64 0
66 1 65 0
67 1 66 0
68 1 67 0
69 1 68 0
70 1 69 0
71 1 70 0
72 1 71 0
73 1 72 0
74 1 73 0
75 1 74 0
76 1 75 0
77 1 76 0
78 1 77 0
79 1 78 0
80 1 79 0
81 1 80 0
82 1 81 0
83 1 82 0
84 1 83 0
85 1 84 0
86 1 85 0
87 1 86 0
88 1 87 0
89 1 88 0
90 1 89 0
91 1 90 0
92 1 91 0
93 1 92 0
94 1 93 0
95 1 94 0
96 1 95 0
97 1 96 0
98 1 97 0
99 1 98 0
100 1 99 0
101 1 100 0
102 1 101 0
103 1 102 0
104 1 103 0
105 1 104 0
106 1 105 0
107 1 106 0
108 1 107 0
109 1 108 0
110 1 109 0
111 1 110 0
112 1 111 0
113 1 112 0
114 1 113 0
115 1 114 0
116 1 115 0
117 1 116 0
118 1 117 0
119 1 118 0
120 1 119 0
121 1 120 0
122 1 121 0
123 1 122 0
124 1 123 0
125 1 124 0
126 1 125 0
127 1 126 0
128 1 127 0
129 1 128 0
130 1 129 0
131 1 130 0
132 1 131 0
133 1 132 0
134 1 133 0

# Extension specification for setting labels:
# id set labelstring
extension LABELSET 1
1 1 REV
2 0 PAR
3 0 AVG
4 0 SLC
5 0 SET
6 0 LIN
7 1 LIN
8 2 LIN
9 3 LIN
10 4 LIN
11 5 LIN
12 6 LIN
13 7 LIN
14 8 LIN
15 9 LIN
16 10 LIN
17 11 LIN
18 12 LIN
19 13 LIN
20 14 LIN
21 15 LIN
22 16 LIN
23 17 LIN
24 18 LIN
25 19 LIN
26 20 LIN
27 21 LIN
28 22 LIN
29 23 LIN
30 24 LIN
31 25 LIN
32 26 LIN
33 27 LIN
34 28 LIN
35 29 LIN
36 30 LIN
37 31 LIN
38 32 LIN
39 33 LIN
40 34 LIN
41 35 LIN
42 36 LIN
43 37 LIN
44 38 LIN
45 39 LIN
46 40 LIN
47 41 LIN
48 42 LIN
49 43 LIN
50 44 LIN
51 45 LIN
52 46 LIN
53 47 LIN
54 48 LIN
55 49 LIN
56 50 LIN
57 51 LIN
58 52 LIN
59 53 LIN
60 54 LIN
61 55 LIN
62 56 LIN
63 57 LIN
64 58 LIN
65 59 LIN
66 60 LIN
67 61 LIN
68 62 LIN
69 63 LIN
70 64 LIN
71 65 LIN
72 66 LIN
73 67 LIN
74 68 LIN
75 69 LIN
76 70 LIN
77 71 LIN
78 72 LIN
79 73 LIN
80 74 LIN
81 75 LIN
82 76 LIN
83 77 LIN
84 78 LIN
85 79 LIN
86 80 LIN
87 81 LIN
88 82 LIN
89 83 LIN
90 84 LIN
91 85 LIN
92 86 LIN
93 87 LIN
94 88 LIN
95 89 LIN
96 90 LIN
97 91 LIN
98 92 LIN
99 93 LIN
100 94 LIN
101 95 LIN
102 96 LIN
103 97 LIN
104 98 LIN
105 99 LIN
106 100 LIN
107 101 LIN
108 102 LIN
109 103 LIN
110 104 LIN
111 105 LIN
112 106 LIN
113 107 LIN
114 108 LIN
115 109 LIN
116 110 LIN
117 111 LIN
118 112 LIN
119 113 LIN
120 114 LIN
121 115 LIN
122 116 LIN
123 117 LIN
124 118 LIN
125 119 LIN
126 120 LIN
127 121 LIN
128 122 LIN
129 123 LIN
130 124 LIN
131 125 LIN
132 126 LIN
133 127 LIN

# Extension specification for setting labels:
# id set labelstring
extension LABELINC 2
1 1 SET

# Sequence Shapes
[SHAPES]

shape_id 1
num_samples 2500
1.57976903e-10
4.26875233e-09
1.97782093e-08
5.43134016e-08
1.15524076e-07
2.11082041e-07
3.48680538e-07
5.36033601e-07
7.8087542e-07
1.0909597e-06
1.47405902e-06
1.93796417e-06
2.49048354e-06
3.13944243e-06
3.89268239e-06
4.75806061e-06
5.74344921e-06
6.85673462e-06
8.10581688e-06
9.49860898e-06
1.10430362e-05
1.27470355e-05
1.46185547e-05
1.66655519e-05
1.88959948e-05
2.13178601e-05
2.39391324e-05
2.67678044e-05
2.9811875e-05
3.30793498e-05
3.65782395e-05
4.03165599e-05
4.43023306e-05
4.85435747e-05
5.3048318e-05
5.78245882e-05
6.28804145e-05
6.82238264e-05
7.38628534e-05
7.98055242e-05
8.60598659e-05
9.26339033e-05
9.95356584e-05
0.000106773149
0.00011435439
0.000122287389
0.000130580148
0.000139240666
0.000148276929
0.000157696921
0.000167508611
0.000177719965
0.000188338933
0.000199373458
0.000210831471
0.000222720888
0.000235049614
0.000247825541
0.000261056544
0.000274750485
0.000288915208
0.000303558542
0.000318688297
0.000334312266
0.000350438223
0.00036707392
0.000384227091
0.00040190545
0.000420116685
0.000438868464
0.000458168432
0.000478024208
0.000498443388
0.000519433541
0.00054100221
0.000563156911
0.000585905132
0.000609254334
0.000633211945
0.000657785366
0.000682981967
0.000708809084
0.000735274025
0.000762384059
0.000790146428
0.000818568333
0.000847656944
0.000877419394
0.000907862779
0.000938994156
0.000970820547
0.00100334893
0.00103658625
0.00107053941
0.00110521526
0.00114062063
0.00117676229
0.00121364697
0.00125128135
0.00128967209
0.00132882578
0.00136874897
0.00140944815
0.0014509298
0.00149320031
0.00153626605
0.00158013332
0.00162480838
0.00167029743
0.00171660663
0.00176374208
0.00181170982
0.00186051586
0.00191016612
0.00196066649
0.00201202279
0.00206424079
0.00211732621
0.00217128468
0.00222612182
0.00228184314
0.00233845412
0.00239596017
0.00245436663
0.0025136788
0.00257390189
0.00263504106
0.0026971014
0.00276008794
0.00282400563
0.00288885938
0.002954654
0.00302139426
0.00308908483
0.00315773035
0.00322733535
0.00329790431
0.00336944164
0.00344195167
0.00351543866
0.00358990679
0.00366536017
0.00374180285
0.00381923877
0.00389767183
0.00397710582
0.00405754448
0.00413899146
0.00422145033
0.00430492458
0.00438941762
0.00447493278
0.00456147331
0.00464904237
0.00473764306
0.00482727837
0.00491795121
0.00500966443
0.00510242075
0.00519622285
0.0052910733
0.00538697459
0.0054839291
0.00558193917
0.00568100699
0.00578113472
0.00588232439
0.00598457795
0.00608789726
0.00619228409
0.00629774012
0.00640426694
0.00651186602
0.00662053877
0.00673028648
0.00684111037
0.00695301155
0.00706599102
0.00718004971
0.00729518843
0.00741140791
0.00752870877
0.00764709154
0.00776655664
0.0078871044
0.00800873504
0.00813144869
0.00825524536
0.00838012499
0.00850608739
0.00863313228
0.00876125926
0.00889046784
0.00902075744
0.00915212735
0.00928457676
0.00941810476
0.00955271034
0.00968839236
0.00982514961
0.00996298073
0.0101018843
0.0102418587
0.0103829024
0.0105250135
0.0106681901
0.0108124303
0.010957732
0.0111040929
0.0112515108
0.0113999831
0.0115495073
0.0117000809
0.0118517009
0.0120043646
0.0121580688
0.0123128106
0.0124685867
0.0126253936
0.0127832281
0.0129420864
0.0131019649
0.0132628599
0.0134247673
0.0135876832
0.0137516034
0.0139165236
0.0140824394
0.0142493464
0.0144172398
0.014586115
0.0147559672
0.0149267912
0.0150985821
0.0152713346
0.0154450433
0.0156197029
0.0157953076
0.015971852
0.01614933
0.0163277358
0.0165070634
0.0166873065
0.0168684588
0.017050514
0.0172334654
0.0174173064
0.0176020303
0.01778763
0.0179740987
0.018161429
0.0183496138
0.0185386456
0.0187285169
0.0189192201
0.0191107474
0.0193030909
0.0194962426
0.0196901943
0.0198849378
0.0200804647
0.0202767665
0.0204738345
0.02067166
0.020870234
0.0210695477
0.0212695918
0.0214703572
0.0216718343
0.0218740138
0.0220768859
0.022280441
0.0224846691
0.0226895603
0.0228951043
0.0231012911
0.0233081101
0.023515551
0.023723603
0.0239322554
0.0241414974
0.0243513179
0.0245617058
0.02477265
0.0249841389
0.0251961612
0.0254087051
0.025621759
0.0258353111
0.0260493492
0.0262638613
0.0264788352
0.0266942584
0.0269101186
0.0271264031
0.0273430992
0.0275601941
0.0277776747
0.0279955279
0.0282137406
0.0284322995
0.0286511909
0.0288704015
0.0290899174
0.0293097248
0.0295298098
0.0297501584
0.0299707563
0.0301915892
0.0304126427
0.0306339022
0.0308553532
0.0310769807
0.0312987699
0.0315207058
0.0317427732
0.0319649568
0.0321872413
0.0324096112
0.0326320508
0.0328545445
0.0330770763
0.0332996304
0.0335221905
0.0337447406
0.0339672644
0.0341897453
0.0344121668
0.0346345124
0.0348567651
0.0350789082
0.0353009246
0.0355227973
0.0357445089
0.0359660423
0.0361873798
0.036408504
0.0366293972
0.0368500416
0.0370704194
0.0372905125
0.0375103028
0.0377297721
0.0379489021
0.0381676744
0.0383860703
0.0386040714
0.0388216588
0.0390388137
0.039255517
0.0394717499
0.039687493
0.0399027271
0.0401174329
0.0403315908
0.0405451813
0.0407581847
0.0409705812
0.041182351
0.041393474
0.0416039303
0.0418136995
0.0420227615
0.0422310958
0.042438682
0.0426454996
0.0428515278
0.043056746
0.0432611332
0.0434646686
0.0436673311
0.0438690995
0.0440699527
0.0442698694
0.0444688281
0.0446668074
0.0448637857
0.0450597413
0.0452546525
0.0454484975
0.0456412543
0.0458329009
0.0460234152
0.0462127751
0.0464009583
0.0465879425
0.0467737052
0.046958224
0.0471414762
0.0473234392
0.0475040902
0.0476834065
0.0478613652
0.0480379432
0.0482131176
0.0483868652
0.0485591629
0.0487299873
0.0488993151
0.049067123
0.0492333875
0.0493980849
0.0495611917
0.0497226843
0.0498825388
0.0500407314
0.0501972383
0.0503520356
0.0505050992
0.050656405
0.0508059289
0.0509536468
0.0510995343
0.0512435672
0.0513857211
0.0515259716
0.0516642942
0.0518006643
0.0519350574
0.0520674488
0.0521978139
0.0523261278
0.0524523658
0.0525765031
0.0526985147
0.0528183758
0.0529360612
0.053051546
0.0531648051
0.0532758134
0.0533845457
0.0534909768
0.0535950815
0.0536968344
0.0537962103
0.0538931838
0.0539877294
0.0540798218
0.0541694355
0.0542565449
0.0543411246
0.0544231489
0.0545025924
0.0545794292
0.0546536339
0.0547251807
0.0547940438
0.0548601977
0.0549236164
0.0549842743
0.0550421455
0.0550972042
0.0551494246
0.0551987808
0.0552452469
0.055288797
0.0553294052
0.0553670457
0.0554016923
0.0554333193
0.0554619006
0.0554874103
0.0555098224
0.0555291109
0.0555452498
0.0555582131
0.0555679749
0.055574509
0.0555777895
0.0555777905
0.0555744858
0.0555678495
0.0555578555
0.055544478
0.0555276908
0.055507468
0.0554837836
0.0554566116
0.0554259261
0.0553917012
0.0553539108
0.0553125291
0.0552675301
0.055218888
0.0551665768
0.0551105707
0.0550508439
0.0549873706
0.0549201248
0.0548490809
0.0547742132
0.0546954957
0.054612903
0.0545264093
0.0544359888
0.0543416162
0.0542432656
0.0541409116
0.0540345287
0.0539240914
0.0538095742
0.0536909517
0.0535681986
0.0534412894
0.053310199
0.053174902
0.0530353732
0.0528915875
0.0527435198
0.052591145
0.052434438
0.0522733739
0.0521079278
0.0519380747
0.0517637899
0.0515850486
0.0514018261
0.0512140977
0.0510218388
0.050825025
0.0506236316
0.0504176344
0.0502070089
0.0499917308
0.049771776
0.0495471203
0.0493177395
0.0490836097
0.048844707
0.0486010073
0.048352487
0.0480991223
0.0478408895
0.047577765
0.0473097254
0.0470367472
0.0467588071
0.0464758818
0.0461879481
0.045894983
0.0455969633
0.0452938663
0.0449856689
0.0446723486
0.0443538826
0.0440302483
0.0437014233
0.0433673852
0.0430281117
0.0426835806
0.0423337697
0.0419786572
0.0416182211
0.0412524395
0.0408812908
0.0405047535
0.0401228059
0.0397354267
0.0393425947
0.0389442886
0.0385404875
0.0381311702
0.0377163161
0.0372959043
0.0368699143
0.0364383256
0.0360011177
0.0355582704
0.0351097635
0.0346555771
0.0341956912
0.033730086
0.0332587419
0.0327816392
0.0322987587
0.031810081
0.031315587
0.0308152576
0.0303090739
0.0297970172
0.0292790688
0.0287552102
0.028225423
0.0276896891
0.0271479902
0.0266003086
0.0260466262
0.0254869256
0.024921189
0.0243493992
0.0237715388
0.0231875909
0.0225975383
0.0220013643
0.0213990523
0.0207905856
0.020175948
0.0195551232
0.0189280952
0.0182948481
0.017655366
0.0170096335
0.016357635
0.0156993552
0.0150347792
0.0143638918
0.0136866782
0.0130031239
0.0123132144
0.0116169353
0.0109142724
0.0102052119
0.00948973982
0.00876784257
0.00803950667
0.00730471879
0.0065634658
0.00581573473
0.00506151278
0.00430078734
0.00353354594
0.00275977634
0.00197946642
0.00119260427
0.00039917816
0.000400823472
0.001207412
0.00202059863
0.00284039436
0.00366681003
0.00449985627
0.00533954356
0.00618588216
0.00703888216
0.00789855346
0.00876490576
0.00963794859
0.0105176913
0.0114041429
0.0122973125
0.0131972088
0.0141038403
0.0150172155
0.0159373424
0.016864229
0.0177978832
0.0187383124
0.0196855241
0.0206395254
0.0216003233
0.0225679246
0.0235423358
0.0245235634
0.0255116134
0.0265064918
0.0275082045
0.0285167568
0.0295321542
0.0305544018
0.0315835046
0.0326194671
0.033662294
0.0347119895
0.0357685578
0.0368320026
0.0379023276
0.0389795363
0.0400636319
0.0411546175
0.0422524957
0.0433572693
0.0444689405
0.0455875115
0.0467129843
0.0478453605
0.0489846417
0.0501308291
0.0512839238
0.0524439266
0.0536108381
0.0547846587
0.0559653885
0.0571530276
0.0583475756
0.059549032
0.0607573961
0.0619726669
0.0631948433
0.0644239238
0.0656599068
0.0669027904
0.0681525726
0.069409251
0.070672823
0.0719432859
0.0732206367
0.0745048722
0.0757959888
0.0770939828
0.0783988504
0.0797105873
0.0810291892
0.0823546515
0.0836869692
0.0850261372
0.0863721503
0.0877250028
0.0890846891
0.0904512029
0.0918245381
0.0932046881
0.0945916463
0.0959854055
0.0973859587
0.0987932983
0.100207417
0.101628306
0.103055958
0.104490364
0.105931516
0.107379404
0.10883402
0.110295354
0.111763397
0.113238139
0.11471957
0.116207679
0.117702455
0.119203889
0.120711969
0.122226684
0.123748022
0.125275971
0.12681052
0.128351656
0.129899367
0.131453639
0.133014461
0.134581819
0.136155699
0.137736088
0.139322972
0.140916336
0.142516166
0.144122448
0.145735167
0.147354307
0.148979853
0.15061179
0.152250102
0.153894772
0.155545784
0.157203122
0.158866768
0.160536707
0.16221292
0.163895389
0.165584098
0.167279028
0.168980161
0.170687477
0.17240096
0.174120589
0.175846345
0.177578209
0.179316161
0.181060181
0.18281025
0.184566345
0.186328448
0.188096537
0.18987059
0.191650587
0.193436506
0.195228324
0.197026021
0.198829573
0.200638958
0.202454153
0.204275135
0.206101881
0.207934368
0.209772571
0.211616466
0.21346603
0.215321238
0.217182066
0.219048487
0.220920478
0.222798012
0.224681065
0.22656961
0.228463621
0.230363073
0.232267938
0.234178189
0.2360938
0.238014744
0.239940992
0.241872518
0.243809293
0.24575129
0.24769848
0.249650834
0.251608323
0.253570919
0.255538592
0.257511313
0.259489053
0.26147178
0.263459465
0.265452078
0.267449588
0.269451965
0.271459176
0.273471192
0.27548798
0.277509509
0.279535747
0.281566662
0.283602222
0.285642393
0.287687144
0.289736441
0.291790251
0.293848542
0.295911278
0.297978427
0.300049954
0.302125825
0.304206006
0.306290462
0.308379158
0.31047206
0.312569132
0.314670338
0.316775643
0.318885011
0.320998406
0.323115792
0.325237133
0.327362391
0.329491529
0.331624512
0.333761301
0.33590186
0.338046149
0.340194133
0.342345772
0.344501029
0.346659865
0.348822242
0.35098812
0.353157462
0.355330227
0.357506377
0.359685871
0.361868671
0.364054737
0.366244028
0.368436504
0.370632124
0.37283085
0.375032638
0.37723745
0.379445242
0.381655975
0.383869607
0.386086096
0.388305401
0.390527479
0.392752288
0.394979787
0.397209932
0.399442681
0.401677992
0.403915821
0.406156126
0.408398862
0.410643988
0.412891458
0.41514123
0.41739326
0.419647503
0.421903915
0.424162453
0.426423071
0.428685725
0.430950371
0.433216963
0.435485457
0.437755806
0.440027967
0.442301893
0.444577538
0.446854858
0.449133806
0.451414336
0.453696402
0.455979958
0.458264958
0.460551354
0.4628391
0.46512815
0.467418456
0.469709972
