# Pulseq sequence file
# Created by PyPulseq

[VERSION]
major 1
minor 4
revision 0

[DEFINITIONS]
AdcRasterTime 1e-07 
BlockDurationRaster 1e-05 
FA 1 2 3 5 10 17 30 
FOV 0.256 0.256 0.008 
GradientRasterTime 1e-05 
Name vfagre3d 
RadiofrequencyRasterTime 1e-06 
ReconMatrixSize 128 128 4 
TE 0.006 
TR 0.014 
TotalDuration 50.176 

# Format of blocks:
# NUM DUR RF  GX  GY  GZ  ADC  EXT
[BLOCKS]
    1   0   0   0   0   0  0  1
    2   0   0   0   0   0  0  2
    3   0   0   0   0   0  0  3
    4   0   0   0   0   0  0  4
    5 230   1   0   0   2  0  0
    6 120   0   3   4   1  0  0
    7  40   0   0   0   0  0  0
    8 650   0   5   0   0  1  0
    9 360   0   6   7   8  0  0
   10   0   0   0   0   0  0  5
   11 230   2   0   0   2  0  0
   12 120   0   3   9   1  0  0
   13  40   0   0   0   0  0  0
   14 650   0   5   0   0  2  0
   15 360   0   6  10   8  0  0
   16   0   0   0   0   0  0  6
   17 230   3   0   0   2  0  0
   18 120   0   3  11   1  0  0
   19  40   0   0   0   0  0  0
   20 650   0   5   0   0  3  0
   21 360   0   6  12   8  0  0
   22   0   0   0   0   0  0  7
   23 230   4   0   0   2  0  0
   24 120   0   3  13   1  0  0
   25  40   0   0   0   0  0  0
   26 650   0   5   0   0  4  0
   27 360   0   6  14   8  0  0
   28   0   0   0   0   0  0  8
   29 230   5   0   0   2  0  0
   30 120   0   3  15   1  0  0
   31  40   0   0   0   0  0  0
   32 650   0   5   0   0  5  0
   33 360   0   6  16   8  0  0
   34   0   0   0   0   0  0  9
   35 230   6   0   0   2  0  0
   36 120   0   3  17   1  0  0
   37  40   0   0   0   0  0  0
   38 650   0   5   0   0  6  0
   39 360   0   6  18   8  0  0
   40   0   0   0   0   0  0 10
   41 230   7   0   0   2  0  0
   42 120   0   3  19   1  0  0
   43  40   0   0   0   0  0  0
   44 650   0   5   0   0  7  0
   45 360   0   6  20   8  0  0
   46   0   0   0   0   0  0 11
   47 230   8   0   0   2  0  0
   48 120   0   3  21   1  0  0
   49  40   0   0   0   0  0  0
   50 650   0   5   0   0  8  0
   51 360   0   6  22   8  0  0
   52   0   0   0   0   0  0 12
   53 230   9   0   0   2  0  0
   54 120   0   3  23   1  0  0
   55  40   0   0   0   0  0  0
   56 650   0   5   0   0  9  0
   57 360   0   6  24   8  0  0
   58   0   0   0   0   0  0 13
   59 230  10   0   0   2  0  0
   60 120   0   3  25   1  0  0
   61  40   0   0   0   0  0  0
   62 650   0   5   0   0 10  0
   63 360   0   6  26   8  0  0
   64   0   0   0   0   0  0 14
   65 230   6   0   0   2  0  0
   66 120   0   3  27   1  0  0
   67  40   0   0   0   0  0  0
   68 650   0   5   0   0  6  0
   69 360   0   6  28   8  0  0
   70   0   0   0   0   0  0 15
   71 230  11   0   0   2  0  0
   72 120   0   3  29   1  0  0
   73  40   0   0   0   0  0  0
   74 650   0   5   0   0 11  0
   75 360   0   6  30   8  0  0
   76   0   0   0   0   0  0 16
   77 230  12   0   0   2  0  0
   78 120   0   3  31   1  0  0
   79  40   0   0   0   0  0  0
   80 650   0   5   0   0 12  0
   81 360   0   6  32   8  0  0
   82   0   0   0   0   0  0 17
   83 230  13   0   0   2  0  0
   84 120   0   3  33   1  0  0
   85  40   0   0   0   0  0  0
   86 650   0   5   0   0 13  0
   87 360   0   6  34   8  0  0
   88   0   0   0   0   0  0 18
   89 230  14   0   0   2  0  0
   90 120   0   3  35   1  0  0
   91  40   0   0   0   0  0  0
   92 650   0   5   0   0 14  0
   93 360   0   6  36   8  0  0
   94   0   0   0   0   0  0 19
   95 230   1   0   0   2  0  0
   96 120   0   3  37   1  0  0
   97  40   0   0   0   0  0  0
   98 650   0   5   0   0  1  0
   99 360   0   6  38   8  0  0
  100   0   0   0   0   0  0 20
  101 230  15   0   0   2  0  0
  102 120   0   3  39   1  0  0
  103  40   0   0   0   0  0  0
  104 650   0   5   0   0 15  0
  105 360   0   6  40   8  0  0
  106   0   0   0   0   0  0 21
  107 230  16   0   0   2  0  0
  108 120   0   3  41   1  0  0
  109  40   0   0   0   0  0  0
  110 650   0   5   0   0 16  0
  111 360   0   6  42   8  0  0
  112   0   0   0   0   0  0 22
  113 230  13   0   0   2  0  0
  114 120   0   3  43   1  0  0
  115  40   0   0   0   0  0  0
  116 650   0   5   0   0 13  0
  117 360   0   6  44   8  0  0
  118   0   0   0   0   0  0 23
  119 230  17   0   0   2  0  0
  120 120   0   3  45   1  0  0
  121  40   0   0   0   0  0  0
  122 650   0   5   0   0 17  0
  123 360   0   6  46   8  0  0
  124   0   0   0   0   0  0 24
  125 230   5   0   0   2  0  0
  126 120   0   3  47   1  0  0
  127  40   0   0   0   0  0  0
  128 650   0   5   0   0  5  0
  129 360   0   6  48   8  0  0
  130   0   0   0   0   0  0 25
  131 230  18   0   0   2  0  0
  132 120   0   3  49   1  0  0
  133  40   0   0   0   0  0  0
  134 650   0   5   0   0 18  0
  135 360   0   6  50   8  0  0
  136   0   0   0   0   0  0 26
  137 230  19   0   0   2  0  0
  138 120   0   3  51   1  0  0
  139  40   0   0   0   0  0  0
  140 650   0   5   0   0 19  0
  141 360   0   6  52   8  0  0
  142   0   0   0   0   0  0 27
  143 230   9   0   0   2  0  0
  144 120   0   3  53   1  0  0
  145  40   0   0   0   0  0  0
  146 650   0   5   0   0  9  0
  147 360   0   6  54   8  0  0
  148   0   0   0   0   0  0 28
  149 230  20   0   0   2  0  0
  150 120   0   3  55   1  0  0
  151  40   0   0   0   0  0  0
  152 650   0   5   0   0 20  0
  153 360   0   6  56   8  0  0
  154   0   0   0   0   0  0 29
  155 230  10   0   0   2  0  0
  156 120   0   3  57   1  0  0
  157  40   0   0   0   0  0  0
  158 650   0   5   0   0 10  0
  159 360   0   6  58   8  0  0
  160   0   0   0   0   0  0 30
  161 230  18   0   0   2  0  0
  162 120   0   3  59   1  0  0
  163  40   0   0   0   0  0  0
  164 650   0   5   0   0 18  0
  165 360   0   6  60   8  0  0
  166   0   0   0   0   0  0 31
  167 230  21   0   0   2  0  0
  168 120   0   3  61   1  0  0
  169  40   0   0   0   0  0  0
  170 650   0   5   0   0 21  0
  171 360   0   6  62   8  0  0
  172   0   0   0   0   0  0 32
  173 230   4   0   0   2  0  0
  174 120   0   3  63   1  0  0
  175  40   0   0   0   0  0  0
  176 650   0   5   0   0  4  0
  177 360   0   6  64   8  0  0
  178   0   0   0   0   0  0 33
  179 230  22   0   0   2  0  0
  180 120   0   3  65   1  0  0
  181  40   0   0   0   0  0  0
  182 650   0   5   0   0 22  0
  183 360   0   6  66   8  0  0
  184   0   0   0   0   0  0 34
  185 230  14   0   0   2  0  0
  186 120   0   3  67   1  0  0
  187  40   0   0   0   0  0  0
  188 650   0   5   0   0 14  0
  189 360   0   6  68   8  0  0
  190   0   0   0   0   0  0 35
  191 230  15   0   0   2  0  0
  192 120   0   3  69   1  0  0
  193  40   0   0   0   0  0  0
  194 650   0   5   0   0 15  0
  195 360   0   6  70   8  0  0
  196   0   0   0   0   0  0 36
  197 230  23   0   0   2  0  0
  198 120   0   3  71   1  0  0
  199  40   0   0   0   0  0  0
  200 650   0   5   0   0 23  0
  201 360   0   6  72   8  0  0
  202   0   0   0   0   0  0 37
  203 230   2   0   0   2  0  0
  204 120   0   3  73   1  0  0
  205  40   0   0   0   0  0  0
  206 650   0   5   0   0  2  0
  207 360   0   6  74   8  0  0
  208   0   0   0   0   0  0 38
  209 230  22   0   0   2  0  0
  210 120   0   3  75   1  0  0
  211  40   0   0   0   0  0  0
  212 650   0   5   0   0 22  0
  213 360   0   6  76   8  0  0
  214   0   0   0   0   0  0 39
  215 230  17   0   0   2  0  0
  216 120   0   3  77   1  0  0
  217  40   0   0   0   0  0  0
  218 650   0   5   0   0 17  0
  219 360   0   6  78   8  0  0
  220   0   0   0   0   0  0 40
  221 230  11   0   0   2  0  0
  222 120   0   3  79   1  0  0
  223  40   0   0   0   0  0  0
  224 650   0   5   0   0 11  0
  225 360   0   6  80   8  0  0
  226   0   0   0   0   0  0 41
  227 230  24   0   0   2  0  0
  228 120   0   3  81   1  0  0
  229  40   0   0   0   0  0  0
  230 650   0   5   0   0 24  0
  231 360   0   6  82   8  0  0
  232   0   0   0   0   0  0 42
  233 230   7   0   0   2  0  0
  234 120   0   3  83   1  0  0
  235  40   0   0   0   0  0  0
  236 650   0   5   0   0  7  0
  237 360   0   6  84   8  0  0
  238   0   0   0   0   0  0 43
  239 230  20   0   0   2  0  0
  240 120   0   3  85   1  0  0
  241  40   0   0   0   0  0  0
  242 650   0   5   0   0 20  0
  243 360   0   6  86   8  0  0
  244   0   0   0   0   0  0 44
  245 230  20   0   0   2  0  0
  246 120   0   3  87   1  0  0
  247  40   0   0   0   0  0  0
  248 650   0   5   0   0 20  0
  249 360   0   6  88   8  0  0
  250   0   0   0   0   0  0 45
  251 230   7   0   0   2  0  0
  252 120   0   3  89   1  0  0
  253  40   0   0   0   0  0  0
  254 650   0   5   0   0  7  0
  255 360   0   6  90   8  0  0
  256   0   0   0   0   0  0 46
  257 230  24   0   0   2  0  0
  258 120   0   3  91   1  0  0
  259  40   0   0   0   0  0  0
  260 650   0   5   0   0 24  0
  261 360   0   6  92   8  0  0
  262   0   0   0   0   0  0 47
  263 230  11   0   0   2  0  0
  264 120   0   3  93   1  0  0
  265  40   0   0   0   0  0  0
  266 650   0   5   0   0 11  0
  267 360   0   6  94   8  0  0
  268   0   0   0   0   0  0 48
  269 230  17   0   0   2  0  0
  270 120   0   3  95   1  0  0
  271  40   0   0   0   0  0  0
  272 650   0   5   0   0 17  0
  273 360   0   6  96   8  0  0
  274   0   0   0   0   0  0 49
  275 230  22   0   0   2  0  0
  276 120   0   3  97   1  0  0
  277  40   0   0   0   0  0  0
  278 650   0   5   0   0 22  0
  279 360   0   6  98   8  0  0
  280   0   0   0   0   0  0 50
  281 230   2   0   0   2  0  0
  282 120   0   3  99   1  0  0
  283  40   0   0   0   0  0  0
  284 650   0   5   0   0  2  0
  285 360   0   6 100   8  0  0
  286   0   0   0   0   0  0 51
  287 230  23   0   0   2  0  0
  288 120   0   3 101   1  0  0
  289  40   0   0   0   0  0  0
  290 650   0   5   0   0 23  0
  291 360   0   6 102   8  0  0
  292   0   0   0   0   0  0 52
  293 230  15   0   0   2  0  0
  294 120   0   3 103   1  0  0
  295  40   0   0   0   0  0  0
  296 650   0   5   0   0 15  0
  297 360   0   6 104   8  0  0
  298   0   0   0   0   0  0 53
  299 230  14   0   0   2  0  0
  300 120   0   3 105   1  0  0
[RF]
1      5.48585 1 2 0 100 6500 0
2      5.48585 1 2 0 100 6500 2.04204
3      5.48585 1 2 0 100 6500 6.12611
4      5.48585 1 2 0 100 6500 5.96903
5      5.48585 1 2 0 100 6500 1.5708
6      5.48585 1 2 0 100 6500 5.49779
7      5.48585 1 2 0 100 6500 5.18363
8      5.48585 1 2 0 100 6500 0.628319
9      5.48585 1 2 0 100 6500 4.39823
10      5.48585 1 2 0 100 6500 3.92699
11      5.48585 1 2 0 100 6500 2.82743
12      5.48585 1 2 0 100 6500 2.19911
13      5.48585 1 2 0 100 6500 3.61283
14      5.48585 1 2 0 100 6500 0.785398
15      5.48585 1 2 0 100 6500 1.25664
16      5.48585 1 2 0 100 6500 4.55531
17      5.48585 1 2 0 100 6500 4.71239
18      5.48585 1 2 0 100 6500 0.471239
19      5.48585 1 2 0 100 6500 1.41372
20      5.48585 1 2 0 100 6500 3.14159
21      5.48585 1 2 0 100 6500 5.34071
22      5.48585 1 2 0 100 6500 2.35619
23      5.48585 1 2 0 100 6500 3.76991
24      5.48585 1 2 0 100 6500 2.98451
25      10.9717 1 2 0 100 6500 3.76991
26      10.9717 1 2 0 100 6500 2.04204
27      10.9717 1 2 0 100 6500 2.35619
28      10.9717 1 2 0 100 6500 4.71239
29      10.9717 1 2 0 100 6500 2.82743
30      10.9717 1 2 0 100 6500 2.98451
31      10.9717 1 2 0 100 6500 5.18363
32      10.9717 1 2 0 100 6500 3.14159
33      10.9717 1 2 0 100 6500 1.25664
34      10.9717 1 2 0 100 6500 0.785398
35      10.9717 1 2 0 100 6500 5.96903
36      10.9717 1 2 0 100 6500 5.34071
37      10.9717 1 2 0 100 6500 0.471239
38      10.9717 1 2 0 100 6500 3.92699
39      10.9717 1 2 0 100 6500 4.39823
40      10.9717 1 2 0 100 6500 1.41372
41      10.9717 1 2 0 100 6500 1.5708
42      10.9717 1 2 0 100 6500 3.61283
43      10.9717 1 2 0 100 6500 4.55531
44      10.9717 1 2 0 100 6500 0
45      10.9717 1 2 0 100 6500 2.19911
46      10.9717 1 2 0 100 6500 5.49779
47      10.9717 1 2 0 100 6500 0.628319
48      10.9717 1 2 0 100 6500 6.12611
49      16.4576 1 2 0 100 6500 0
50      16.4576 1 2 0 100 6500 0.785398
51      16.4576 1 2 0 100 6500 3.61283
52      16.4576 1 2 0 100 6500 2.19911
53      16.4576 1 2 0 100 6500 2.82743
54      16.4576 1 2 0 100 6500 5.49779
55      16.4576 1 2 0 100 6500 3.92699
56      16.4576 1 2 0 100 6500 4.39823
57      16.4576 1 2 0 100 6500 0.628319
58      16.4576 1 2 0 100 6500 5.18363
59      16.4576 1 2 0 100 6500 1.5708
60      16.4576 1 2 0 100 6500 5.96903
61      16.4576 1 2 0 100 6500 6.12611
62      16.4576 1 2 0 100 6500 2.04204
63      16.4576 1 2 0 100 6500 1.25664
64      16.4576 1 2 0 100 6500 4.55531
65      16.4576 1 2 0 100 6500 4.71239
66      16.4576 1 2 0 100 6500 0.471239
67      16.4576 1 2 0 100 6500 1.41372
68      16.4576 1 2 0 100 6500 3.14159
69      16.4576 1 2 0 100 6500 5.34071
70      16.4576 1 2 0 100 6500 2.35619
71      16.4576 1 2 0 100 6500 3.76991
72      16.4576 1 2 0 100 6500 2.98451
73      27.4293 1 2 0 100 6500 1.25664
74      27.4293 1 2 0 100 6500 4.55531
75      27.4293 1 2 0 100 6500 3.61283
76      27.4293 1 2 0 100 6500 4.71239
77      27.4293 1 2 0 100 6500 1.5708
78      27.4293 1 2 0 100 6500 0.471239
79      27.4293 1 2 0 100 6500 1.41372
80      27.4293 1 2 0 100 6500 4.39823
81      27.4293 1 2 0 100 6500 3.14159
82      27.4293 1 2 0 100 6500 3.92699
83      27.4293 1 2 0 100 6500 5.34071
84      27.4293 1 2 0 100 6500 5.96903
85      27.4293 1 2 0 100 6500 2.35619
86      27.4293 1 2 0 100 6500 0.785398
87      27.4293 1 2 0 100 6500 3.76991
88      27.4293 1 2 0 100 6500 2.04204
89      27.4293 1 2 0 100 6500 2.82743
90      27.4293 1 2 0 100 6500 2.98451
91      27.4293 1 2 0 100 6500 5.18363
92      27.4293 1 2 0 100 6500 0
93      27.4293 1 2 0 100 6500 2.19911
94      27.4293 1 2 0 100 6500 5.49779
95      27.4293 1 2 0 100 6500 0.628319
96      27.4293 1 2 0 100 6500 6.12611
97      54.8585 1 2 0 100 6500 1.25664
98      54.8585 1 2 0 100 6500 0.785398
99      54.8585 1 2 0 100 6500 2.35619
100      54.8585 1 2 0 100 6500 5.96903
101      54.8585 1 2 0 100 6500 5.34071
102      54.8585 1 2 0 100 6500 0.471239
103      54.8585 1 2 0 100 6500 3.92699
104      54.8585 1 2 0 100 6500 3.14159
105      54.8585 1 2 0 100 6500 4.39823
106      54.8585 1 2 0 100 6500 1.41372
107      54.8585 1 2 0 100 6500 1.5708
108      54.8585 1 2 0 100 6500 4.71239
109      54.8585 1 2 0 100 6500 3.61283
110      54.8585 1 2 0 100 6500 4.55531
111      54.8585 1 2 0 100 6500 0
112      54.8585 1 2 0 100 6500 2.19911
113      54.8585 1 2 0 100 6500 2.82743
114      54.8585 1 2 0 100 6500 5.49779
115      54.8585 1 2 0 100 6500 0.628319
116      54.8585 1 2 0 100 6500 5.18363
117      54.8585 1 2 0 100 6500 6.12611
118      54.8585 1 2 0 100 6500 2.04204
119      54.8585 1 2 0 100 6500 3.76991
120      54.8585 1 2 0 100 6500 2.98451
121      93.2595 1 2 0 100 6500 0
122      93.2595 1 2 0 100 6500 2.04204
123      93.2595 1 2 0 100 6500 6.12611
124      93.2595 1 2 0 100 6500 5.96903
125      93.2595 1 2 0 100 6500 1.5708
126      93.2595 1 2 0 100 6500 5.49779
127      93.2595 1 2 0 100 6500 5.18363
128      93.2595 1 2 0 100 6500 0.628319
129      93.2595 1 2 0 100 6500 4.39823
130      93.2595 1 2 0 100 6500 3.92699
131      93.2595 1 2 0 100 6500 2.82743
132      93.2595 1 2 0 100 6500 2.19911
133      93.2595 1 2 0 100 6500 3.61283
134      93.2595 1 2 0 100 6500 0.785398
135      93.2595 1 2 0 100 6500 1.25664
136      93.2595 1 2 0 100 6500 4.55531
137      93.2595 1 2 0 100 6500 4.71239
138      93.2595 1 2 0 100 6500 0.471239
139      93.2595 1 2 0 100 6500 1.41372
140      93.2595 1 2 0 100 6500 3.14159
141      93.2595 1 2 0 100 6500 5.34071
142      93.2595 1 2 0 100 6500 2.35619
143      93.2595 1 2 0 100 6500 3.76991
144      93.2595 1 2 0 100 6500 2.98451
145      164.576 1 2 0 100 6500 3.76991
146      164.576 1 2 0 100 6500 2.04204
147      164.576 1 2 0 100 6500 2.35619
148      164.576 1 2 0 100 6500 4.71239
149      164.576 1 2 0 100 6500 2.82743
150      164.576 1 2 0 100 6500 2.98451
151      164.576 1 2 0 100 6500 5.18363
152      164.576 1 2 0 100 6500 3.14159
153      164.576 1 2 0 100 6500 1.25664
154      164.576 1 2 0 100 6500 0.785398
155      164.576 1 2 0 100 6500 5.96903
156      164.576 1 2 0 100 6500 5.34071
157      164.576 1 2 0 100 6500 0.471239
158      164.576 1 2 0 100 6500 3.92699
159      164.576 1 2 0 100 6500 4.39823
160      164.576 1 2 0 100 6500 1.41372
161      164.576 1 2 0 100 6500 1.5708
162      164.576 1 2 0 100 6500 3.61283
163      164.576 1 2 0 100 6500 4.55531
164      164.576 1 2 0 100 6500 0
165      164.576 1 2 0 100 6500 2.19911
166      164.576 1 2 0 100 6500 5.49779
167      164.576 1 2 0 100 6500 0.628319
168      164.576 1 2 0 100 6500 6.12611

# Format of trapezoid gradients:
# id amplitude rise flat fall delay
# ..      Hz/m   us   us   us    us
[TRAP]
 1      -625000 370  460 370   0
 2       250000 150 2000 150   0
 3      -629883 370   30 370   0
 4       595238 350   70 350   0
 5        78125  50 6400  50   0
 6       636943 380 1190 380   0
 7      -595238 350   70 350   0
 8       636943 380 2760 380   0
 9       559304 330  110 330   0
10      -559304 330  110 330   0
11       526495 310  150 310   0
12      -526495 310  150 310   0
13       506981 300  170 300   0
14      -506981 300  170 300   0
15       488281 290  190 290   0
16      -488281 290  190 290   0
17       470344 280  210 280   0
18      -470344 280  210 280   0
19       453125 270  230 270   0
20      -453125 270  230 270   0
21       436581 260  250 260   0
22      -436581 260  250 260   0
23       420673 250  270 250   0
24      -420673 250  270 250   0
25       405366 240  290 240   0
26      -405366 240  290 240   0
27       390625 230  310 230   0
28      -390625 230  310 230   0
29       383391 230  310 230   0
30      -383391 230  310 230   0
31       369318 220  330 220   0
32      -369318 220  330 220   0
33       355748 210  350 210   0
34      -355748 210  350 210   0
35       348772 210  350 210   0
36      -348772 210  350 210   0
37       335800 200  370 200   0
38      -335800 200  370 200   0
39       323276 190  390 190   0
40      -323276 190  390 190   0
41       316541 190  390 190   0
42      -316541 190  390 190   0
43       304555 180  410 180   0
44      -304555 180  410 180   0
45       297934 180  410 180   0
46      -297934 180  410 180   0
47       286458 170  430 170   0
48      -286458 170  430 170   0
49       279948 170  430 170   0
50      -279948 170  430 170   0
51       268955 160  450 160   0
52      -268955 160  450 160   0
53       262551 160  450 160   0
54      -262551 160  450 160   0
55       252016 150  470 150   0
56      -252016 150  470 150   0
57       245716 150  470 150   0
58      -245716 150  470 150   0
59       235615 140  490 140   0
60      -235615 140  490 140   0
61       229415 140  490 140   0
62      -229415 140  490 140   0
63       219727 130  510 130   0
64      -219727 130  510 130   0
65       213623 130  510 130   0
66      -213623 130  510 130   0
67       204327 120  530 120   0
68      -204327 120  530 120   0
69       198317 120  530 120   0
70      -198317 120  530 120   0
71       192308 120  530 120   0
72      -192308 120  530 120   0
73       183475 110  550 110   0
74      -183475 110  550 110   0
75       177557 110  550 110   0
76      -177557 110  550 110   0
77       169076 100  570 100   0
78      -169076 100  570 100   0
79       163246 100  570 100   0
80      -163246 100  570 100   0
81       157416 100  570 100   0
82      -157416 100  570 100   0
83       149357  90  590  90   0
84      -149357  90  590  90   0
85       143612  90  590  90   0
86      -143612  90  590  90   0
87       135870  80  610  80   0
88      -135870  80  610  80   0
89       130208  80  610  80   0
90      -130208  80  610  80   0
91       124547  80  610  80   0
92      -124547  80  610  80   0
93       117187  70  630  70   0
94      -117187  70  630  70   0
95       111607  70  630  70   0
96      -111607  70  630  70   0
97       106027  70  630  70   0
98      -106027  70  630  70   0
99      99031.7  60  650  60   0
100     -99031.7  60  650  60   0
101      93529.9  60  650  60   0
102     -93529.9  60  650  60   0
103      88028.2  60  650  60   0
104     -88028.2  60  650  60   0
105      81380.2  50  670  50   0
106     -81380.2  50  670  50   0
107      75954.9  50  670  50   0
108     -75954.9  50  670  50   0
109      70529.5  50  670  50   0
110     -70529.5  50  670  50   0
111      64212.3  40  690  40   0
112     -64212.3  40  690  40   0
113      58861.3  40  690  40   0
114     -58861.3  40  690  40   0
115      53510.3  40  690  40   0
116     -53510.3  40  690  40   0
117      47508.4  30  710  30   0
118     -47508.4  30  710  30   0
119      42229.7  30  710  30   0
120     -42229.7  30  710  30   0
121        36951  30  710  30   0
122       -36951  30  710  30   0
123        31250  20  730  20   0
124       -31250  20  730  20   0
125      26041.7  20  730  20   0
126     -26041.7  20  730  20   0
127      20833.3  20  730  20   0
128     -20833.3  20  730  20   0
129      15419.4  10  750  10   0
130     -15419.4  10  750  10   0
131      10279.6  10  750  10   0
132     -10279.6  10  750  10   0
133       5139.8  10  750  10   0
134      -5139.8  10  750  10   0
135           -0  10  750  10   0
136            0  10  750  10   0
137      -414474 250  700 250   0
138      -258413 160  880 160   0
139      -128348  80 1040  80   0

# Format of ADC events:
# id num dwell delay freq phase
# ..  ..    ns    us   Hz   rad
[ADC]
1 128 50000 50 0 0
2 128 50000 50 0 2.04204
3 128 50000 50 0 6.12611
4 128 50000 50 0 5.96903
5 128 50000 50 0 1.5708
6 128 50000 50 0 5.49779
7 128 50000 50 0 5.18363
8 128 50000 50 0 0.628319
9 128 50000 50 0 4.39823
10 128 50000 50 0 3.92699
11 128 50000 50 0 2.82743
12 128 50000 50 0 2.19911
13 128 50000 50 0 3.61283
14 128 50000 50 0 0.785398
15 128 50000 50 0 1.25664
16 128 50000 50 0 4.55531
17 128 50000 50 0 4.71239
18 128 50000 50 0 0.471239
19 128 50000 50 0 1.41372
20 128 50000 50 0 3.14159
21 128 50000 50 0 5.34071
22 128 50000 50 0 2.35619
23 128 50000 50 0 3.76991
24 128 50000 50 0 2.98451

# Format of extension lists:
# id type ref next_id
# next_id of 0 terminates the list
# Extension list is followed by extension specifications
[EXTENSIONS]
1 1 1 0
2 1 2 0
3 1 3 0
4 1 4 0
5 1 5 0
6 1 6 0
7 1 7 0
8 1 8 0
9 1 9 0
10 1 10 0
11 1 11 0
12 1 12 0
13 1 13 0
14 1 14 0
15 1 15 0
16 1 16 0
17 1 17 0
18 1 18 0
19 1 19 0
20 1 20 0
21 1 21 0
22 1 22 0
23 1 23 0
24 1 24 0
25 1 25 0
26 1 26 0
27 1 27 0
28 1 28 0
29 1 29 0
30 1 30 0
31 1 31 0
32 1 32 0
33 1 33 0
34 1 34 0
35 1 35 0
36 1 36 0
37 1 37 0
38 1 38 0
39 1 39 0
40 1 40 0
41 1 41 0
42 1 42 0
43 1 43 0
44 1 44 0
45 1 45 0
46 1 46 0
47 1 47 0
48 1 48 0
49 1 49 0
50 1 50 0
51 1 51 0
52 1 52 0
53 1 53 0
54 1 54 0
55 1 55 0
56 1 56 0
57 1 57 0
58 1 58 0
59 1 59 0
60 1 60 0
61 1 61 0
62 1 62 0
63 1 63 0
64 1 64 0
65 1 65 0
66 1 66 0
67 1 67 0
68 1 68 0
69 1 69 0
70 1 70 0
71 1 71 0
72 1 72 0
73 1 73 0
74 1 74 0
75 1 75 0
76 1 76 0
77 1 77 0
78 1 78 0
79 1 79 0
80 1 80 0
81 1 81 0
82 1 82 0
83 1 83 0
84 1 84 0
85 1 85 0
86 1 86 0
87 1 87 0
88 1 88 0
89 1 89 0
90 1 90 0
91 1 91 0
92 1 92 0
93 1 93 0
94 1 94 0
95 1 95 0
96 1 96 0
97 1 97 0
98 1 98 0
99 1 99 0
100 1 100 0
101 1 101 0
102 1 102 0
103 1 103 0
104 1 104 0
105 1 105 0
106 1 106 0
107 1 107 0
108 1 108 0
109 1 109 0
110 1 110 0
111 1 111 0
112 1 112 0
113 1 113 0
114 1 114 0
115 1 115 0
116 1 116 0
117 1 117 0
118 1 118 0
119 1 119 0
120 1 120 0
121 1 121 0
122 1 122 0
123 1 123 0
124 1 124 0
125 1 125 0
126 1 126 0
127 1 127 0
128 1 128 0
129 1 129 0
130 1 130 0
131 1 131 0
132 1 132 0
133 1 133 0
134 1 134 0
135 1 135 0
136 1 136 0
137 1 137 0
138 1 138 0
139 1 139 0
140 1 140 0

# Extension specification for setting labels:
# id set labelstring
extension LABELSET 1
1 1 REV
2 0 SET
3 0 PAR
4 0 LIN
5 1 LIN
6 2 LIN
7 3 LIN
8 4 LIN
9 5 LIN
10 6 LIN
11 7 LIN
12 8 LIN
13 9 LIN
14 10 LIN
15 11 LIN
16 12 LIN
17 13 LIN
18 14 LIN
19 15 LIN
20 16 LIN
21 17 LIN
22 18 LIN
23 19 LIN
24 20 LIN
25 21 LIN
26 22 LIN
27 23 LIN
28 24 LIN
29 25 LIN
30 26 LIN
31 27 LIN
32 28 LIN
33 29 LIN
34 30 LIN
35 31 LIN
36 32 LIN
37 33 LIN
38 34 LIN
39 35 LIN
40 36 LIN
41 37 LIN
42 38 LIN
43 39 LIN
44 40 LIN
45 41 LIN
46 42 LIN
47 43 LIN
48 44 LIN
49 45 LIN
50 46 LIN
51 47 LIN
52 48 LIN
53 49 LIN
54 50 LIN
55 51 LIN
56 52 LIN
57 53 LIN
58 54 LIN
59 55 LIN
60 56 LIN
61 57 LIN
62 58 LIN
63 59 LIN
64 60 LIN
65 61 LIN
66 62 LIN
67 63 LIN
68 64 LIN
69 65 LIN
70 66 LIN
71 67 LIN
72 68 LIN
73 69 LIN
74 70 LIN
75 71 LIN
76 72 LIN
77 73 LIN
78 74 LIN
79 75 LIN
80 76 LIN
81 77 LIN
82 78 LIN
83 79 LIN
84 80 LIN
85 81 LIN
86 82 LIN
87 83 LIN
88 84 LIN
89 85 LIN
90 86 LIN
91 87 LIN
92 88 LIN
93 89 LIN
94 90 LIN
95 91 LIN
96 92 LIN
97 93 LIN
98 94 LIN
99 95 LIN
100 96 LIN
101 97 LIN
102 98 LIN
103 99 LIN
104 100 LIN
105 101 LIN
106 102 LIN
107 103 LIN
108 104 LIN
109 105 LIN
110 106 LIN
111 107 LIN
112 108 LIN
113 109 LIN
114 110 LIN
115 111 LIN
116 112 LIN
117 113 LIN
118 114 LIN
119 115 LIN
120 116 LIN
121 117 LIN
122 118 LIN
123 119 LIN
124 120 LIN
125 121 LIN
126 122 LIN
127 123 LIN
128 124 LIN
129 125 LIN
130 126 LIN
131 127 LIN
132 1 PAR
133 2 PAR
134 3 PAR
135 1 SET
136 2 SET
137 3 SET
138 4 SET
139 5 SET
140 6 SET

# Extension specification for setting labels:
# id set labelstring
extension LABELINC 2

# Sequence Shapes
[SHAPES]

shape_id 1
num_samples 2000
3.08579554e-10
8.33986866e-09
3.8648066e-08
1.06152001e-07
2.25824945e-07
4.12692682e-07
6.81831569e-07
1.04836659e-06
1.52746937e-06
2.13435626e-06
2.88428628e-06
3.7925592e-06
4.87451348e-06
6.14552431e-06
7.62100153e-06
9.31638765e-06
1.12471558e-05
1.34288077e-05
1.58768715e-05
1.86068999e-05
2.16344678e-05
2.49751706e-05
2.86446218e-05
3.26584508e-05
3.70323014e-05
4.1781829e-05
4.69226987e-05
5.24705833e-05
5.84411612e-05
6.4850114e-05
7.17131246e-05
7.90458748e-05
8.68640434e-05
9.51833038e-05
0.000104019322
0.000113387754
0.000123304245
0.000133784426
0.000144843909
0.000156498291
0.000168763148
0.000181654031
0.000195186469
0.00020937596
0.000224237975
0.000239787953
0.000256041298
0.00027301338
0.000290719527
0.000309175031
0.000328395136
0.000348395044
0.000369189909
0.000390794835
0.000413224874
0.000436495024
0.000460620227
0.000485615365
0.00051149526
0.00053827467
0.000565968288
0.00059459074
0.00062415658
0.000654680292
0.000686176284
0.000718658886
0.000752142352
0.000786640851
0.000822168472
0.000858739215
0.000896366994
0.000935065631
0.000974848856
0.0010157303
0.00105772351
0.00110084192
0.00114509887
0.00119050758
0.00123708119
0.00128483271
0.00133377505
0.001383921
0.00143528325
0.00148787435
0.00154170675
0.00159679277
0.0016531446
0.00171077431
0.00176969385
0.00182991502
0.0018914495
0.00195430884
0.00201850444
0.00208404756
0.00215094934
0.00221922074
0.00228887261
0.00235991563
0.00243236033
0.00250621711
0.00258149618
0.00265820763
0.00273636136
0.00281596712
0.00289703451
0.00297957295
0.0030635917
0.00314909984
0.0032361063
0.0033246198
0.00341464893
0.00350620207
0.00359928743
0.00369391304
0.00379008674
0.0038878162
0.00398710888
0.00408797207
0.00419041286
0.00429443815
0.00440005463
0.00450726881
0.004616087
0.0047265153
0.00483855962
0.00495222563
0.00506751885
0.00518444453
0.00530300776
0.00542321339
0.00554506607
0.00566857021
0.00579373003
0.00592054952
0.00604903243
0.00617918233
0.00631100252
0.0064444961
0.00657966594
0.00671651466
0.00685504467
0.00699525813
0.00713715699
0.00728074293
0.00742601741
0.00757298167
0.00772163666
0.00787198312
0.00802402155
0.00817775218
0.00833317502
0.0084902898
0.00864909602
0.00880959293
0.00897177951
0.00913565449
0.00930121637
0.00946846334
0.00963739338
0.00980800418
0.00998029319
0.0101542576
0.0103298942
0.0105071998
0.0106861707
0.010866803
0.0110490926
0.0112330349
0.0114186254
0.0116058591
0.0117947306
0.0119852344
0.0121773648
0.0123711157
0.0125664806
0.0127634531
0.0129620261
0.0131621924
0.0133639445
0.0135672748
0.013772175
0.013978637
0.0141866519
0.0143962111
0.0146073051
0.0148199246
0.0150340598
0.0152497005
0.0154668364
0.015685457
0.0159055511
0.0161271075
0.0163501148
0.0165745611
0.0168004342
0.0170277218
0.0172564111
0.017486489
0.0177179424
0.0179507574
0.0181849203
0.0184204169
0.0186572325
0.0188953524
0.0191347615
0.0193754443
0.0196173852
0.019860568
0.0201049766
0.0203505942
0.020597404
0.0208453886
0.0210945307
0.0213448122
0.0215962152
0.021848721
0.0221023111
0.0223569664
0.0226126674
0.0228693946
0.0231271279
0.0233858472
0.0236455318
0.0239061609
0.0241677132
0.0244301674
0.0246935016
0.0249576937
0.0252227214
0.025488562
0.0257551924
0.0260225894
0.0262907294
0.0265595885
0.0268291425
0.0270993669
0.0273702368
0.0276417273
0.0279138128
0.0281864678
0.0284596662
0.0287333816
0.0290075876
0.0292822573
0.0295573634
0.0298328784
0.0301087747
0.0303850242
0.0306615984
0.0309384688
0.0312156064
0.0314929819
0.0317705659
0.0320483286
0.0323262398
0.0326042691
0.032882386
0.0331605593
0.033438758
0.0337169504
0.0339951048
0.0342731891
0.0345511709
0.0348290175
0.0351066961
0.0353841735
0.0356614161
0.0359383902
0.0362150618
0.0364913967
0.0367673602
0.0370429175
0.0373180336
0.037592673
0.0378668001
0.0381403791
0.0384133737
0.0386857477
0.0389574642
0.0392284864
0.0394987771
0.0397682988
0.040037014
0.0403048845
0.0405718723
0.0408379388
0.0411030455
0.0413671534
0.0416302233
0.0418922158
0.0421530913
0.0424128099
0.0426713315
0.0429286156
0.0431846219
0.0434393093
0.043692637
0.0439445636
0.0441950477
0.0444440476
0.0446915212
0.0449374266
0.0451817214
0.0454243629
0.0456653084
0.045904515
0.0461419394
0.0463775383
0.0466112681
0.0468430849
0.0470729448
0.0473008036
0.0475266169
0.0477503402
0.0479719288
0.0481913376
0.0484085216
0.0486234355
0.0488360338
0.0490462709
0.0492541009
0.0494594779
0.0496623557
0.049862688
0.0500604282
0.0502555299
0.0504479461
0.0506376299
0.0508245343
0.0510086119
0.0511898154
0.0513680973
0.0515434098
0.0517157052
0.0518849355
0.0520510526
0.0522140083
0.0523737543
0.0525302422
0.0526834233
0.0528332489
0.0529796704
0.0531226386
0.0532621047
