# Pulseq sequence file
# Created by PyPulseq

[VERSION]
major 1
minor 4
revision 0

[DEFINITIONS]
AdcRasterTime 1e-07 
BlockDurationRaster 1e-05 
FA 30 60 
FOV 0.256 0.256 0.08 
GradientRasterTime 1e-05 
Name vfagre3d 
RadiofrequencyRasterTime 1e-06 
ReconMatrixSize 64 64 20 
SliceThickness 0.08 
TE 0.004 
TR 0.1 
TotalDuration 368.67264 

# Format of blocks:
# NUM DUR RF  GX  GY  GZ  ADC  EXT
[BLOCKS]
    1   0   0   0   0   0  0  1
    2   0   0   0   0   0  0  2
    3   0   0   0   0   0  0  3
    4 218   1   0   0 126  0  0
    5  60   0   0   0   0  0  0
    6  68   0  67  65  89  0  0
    7 327   0  68   0   0  0  0
    8 1557   0 127  66  90  0  0
    9 811   2   0   0   0  0  0
   10 2192   0 125 125 125  0  0
   11 4767   0   0   0   0  0  0
   12 218   3   0   0 126  0  0
   13  60   0   0   0   0  0  0
   14  68   0  67  65  89  0  0
   15 327   0  68   0   0  0  0
   16 1557   0 128  66  90  0  0
   17 811   4   0   0   0  0  0
   18 2192   0 125 125 125  0  0
   19 4767   0   0   0   0  0  0
   20 218   5   0   0 126  0  0
   21  60   0   0   0   0  0  0
   22  68   0  67  65  89  0  0
   23 327   0  68   0   0  0  0
   24 1557   0 128  66  90  0  0
   25 811   6   0   0   0  0  0
   26 2192   0 125 125 125  0  0
   27 4767   0   0   0   0  0  0
   28 218   7   0   0 126  0  0
   29  60   0   0   0   0  0  0
   30  68   0  67  65  89  0  0
   31 327   0  68   0   0  0  0
   32 1557   0 128  66  90  0  0
   33 811   8   0   0   0  0  0
   34 2192   0 125 125 125  0  0
   35 4767   0   0   0   0  0  0
   36 218   9   0   0 126  0  0
   37  60   0   0   0   0  0  0
   38  68   0  67  65  89  0  0
   39 327   0  68   0   0  0  0
   40 1557   0 128  66  90  0  0
   41 811  10   0   0   0  0  0
   42 2192   0 125 125 125  0  0
   43 4767   0   0   0   0  0  0
   44 218  11   0   0 126  0  0
   45  60   0   0   0   0  0  0
   46  68   0  67  65  89  0  0
   47 327   0  68   0   0  0  0
   48 1557   0 128  66  90  0  0
   49 811  12   0   0   0  0  0
   50 2192   0 125 125 125  0  0
   51 4767   0   0   0   0  0  0
   52 218  13   0   0 126  0  0
   53  60   0   0   0   0  0  0
   54  68   0  67  65  89  0  0
   55 327   0  68   0   0  0  0
   56 1557   0 128  66  90  0  0
   57 811  14   0   0   0  0  0
   58 2192   0 125 125 125  0  0
   59 4767   0   0   0   0  0  0
   60 218  15   0   0 126  0  0
   61  60   0   0   0   0  0  0
   62  68   0  67  65  89  0  0
   63 327   0  68   0   0  0  0
   64 1557   0 128  66  90  0  0
   65 811  16   0   0   0  0  0
   66 2192   0 125 125 125  0  0
   67 4767   0   0   0   0  0  0
   68 218  17   0   0 126  0  0
   69  60   0   0   0   0  0  0
   70  68   0  67  65  89  0  0
   71 327   0  68   0   0  0  0
   72 1557   0 128  66  90  0  0
   73 811  18   0   0   0  0  0
   74 2192   0 125 125 125  0  0
   75 4767   0   0   0   0  0  0
   76 218  19   0   0 126  0  0
   77  60   0   0   0   0  0  0
   78  68   0  67  65  89  0  0
   79 327   0  68   0   0  0  0
   80 1557   0 128  66  90  0  0
   81 811  20   0   0   0  0  0
   82 2192   0 125 125 125  0  0
   83 4767   0   0   0   0  0  0
   84 218  21   0   0 126  0  0
   85  60   0   0   0   0  0  0
   86  68   0  67  65  89  0  0
   87 327   0  68   0   0  0  0
   88 1557   0 128  66  90  0  0
   89 811  22   0   0   0  0  0
   90 2192   0 125 125 125  0  0
   91 4767   0   0   0   0  0  0
   92 218  23   0   0 126  0  0
   93  60   0   0   0   0  0  0
   94  68   0  67  65  89  0  0
   95 327   0  68   0   0  0  0
   96 1557   0 128  66  90  0  0
   97 811  24   0   0   0  0  0
   98 2192   0 125 125 125  0  0
   99 4767   0   0   0   0  0  0
  100 218  25   0   0 126  0  0
  101  60   0   0   0   0  0  0
  102  68   0  67  65  89  0  0
  103 327   0  68   0   0  0  0
  104 1557   0 128  66  90  0  0
  105 811  26   0   0   0  0  0
  106 2192   0 125 125 125  0  0
  107 4767   0   0   0   0  0  0
  108 218  27   0   0 126  0  0
  109  60   0   0   0   0  0  0
  110  68   0  67  65  89  0  0
  111 327   0  68   0   0  0  0
  112 1557   0 128  66  90  0  0
  113 811  28   0   0   0  0  0
  114 2192   0 125 125 125  0  0
  115 4767   0   0   0   0  0  0
  116 218  29   0   0 126  0  0
  117  60   0   0   0   0  0  0
  118  68   0  67  65  89  0  0
  119 327   0  68   0   0  0  0
  120 1557   0 128  66  90  0  0
  121 811  30   0   0   0  0  0
  122 2192   0 125 125 125  0  0
  123 4767   0   0   0   0  0  0
  124 218  31   0   0 126  0  0
  125  60   0   0   0   0  0  0
  126  68   0  67  65  89  0  0
  127 327   0  68   0   0  0  0
  128 1557   0 128  66  90  0  0
  129 811  32   0   0   0  0  0
  130 2192   0 125 125 125  0  0
  131 4767   0   0   0   0  0  0
  132 218  33   0   0 126  0  0
  133  60   0   0   0   0  0  0
  134  68   0  67  65  89  0  0
  135 327   0  68   0   0  0  0
  136 1557   0 128  66  90  0  0
  137 811  34   0   0   0  0  0
  138 2192   0 125 125 125  0  0
  139 4767   0   0   0   0  0  0
  140 218  35   0   0 126  0  0
  141  60   0   0   0   0  0  0
  142  68   0  67  65  89  0  0
  143 327   0  68   0   0  0  0
  144 1557   0 128  66  90  0  0
  145 811  36   0   0   0  0  0
  146 2192   0 125 125 125  0  0
  147 4767   0   0   0   0  0  0
  148 218  37   0   0 126  0  0
  149  60   0   0   0   0  0  0
  150  68   0  67  65  89  0  0
  151 327   0  68   0   0  0  0
  152 1557   0 128  66  90  0  0
  153 811  38   0   0   0  0  0
  154 2192   0 125 125 125  0  0
  155 4767   0   0   0   0  0  0
  156 218  39   0   0 126  0  0
  157  60   0   0   0   0  0  0
  158  68   0  67  65  89  0  0
  159 327   0  68   0   0  0  0
  160 1557   0 128  66  90  0  0
  161 811  40   0   0   0  0  0
  162 2192   0 125 125 125  0  0
  163 4767   0   0   0   0  0  0
  164 218  41   0   0 126  0  0
  165  60   0   0   0   0  0  0
  166  68   0  67  65  89  0  0
  167 327   0  68   0   0  0  0
  168 1557   0 128  66  90  0  0
  169 811  42   0   0   0  0  0
  170 2192   0 125 125 125  0  0
  171 4767   0   0   0   0  0  0
  172 218  43   0   0 126  0  0
  173  60   0   0   0   0  0  0
  174  68   0  67  65  89  0  0
  175 327   0  68   0   0  0  0
  176 1557   0 128  66  90  0  0
  177 811  44   0   0   0  0  0
  178 2192   0 125 125 125  0  0
  179 4767   0   0   0   0  0  0
  180 218  45   0   0 126  0  0
  181  60   0   0   0   0  0  0
  182  68   0  67  65  89  0  0
  183 327   0  68   0   0  0  0
  184 1557   0 128  66  90  0  0
  185 811  46   0   0   0  0  0
  186 2192   0 125 125 125  0  0
  187 4767   0   0   0   0  0  0
  188 218  47   0   0 126  0  0
  189  60   0   0   0   0  0  0
  190  68   0  67  65  89  0  0
  191 327   0  68   0   0  0  0
  192 1557   0 128  66  90  0  0
  193 811  48   0   0   0  0  0
  194 2192   0 125 125 125  0  0
  195 4767   0   0   0   0  0  0
  196 218  49   0   0 126  0  0
  197  60   0   0   0   0  0  0
  198  68   0  67  65  89  0  0
  199 327   0  68   0   0  0  0
  200 1557   0 128  66  90  0  0
  201 811  50   0   0   0  0  0
  202 2192   0 125 125 125  0  0
  203 4767   0   0   0   0  0  0
  204 218  51   0   0 126  0  0
  205  60   0   0   0   0  0  0
  206  68   0  67  65  89  0  0
  207 327   0  68   0   0  0  0
  208 1557   0 128  66  90  0  0
  209 811  52   0   0   0  0  0
  210 2192   0 125 125 125  0  0
  211 4767   0   0   0   0  0  0
  212 218  53   0   0 126  0  0
  213  60   0   0   0   0  0  0
  214  68   0  67  65  89  0  0
  215 327   0  68   0   0  0  0
  216 1557   0 128  66  90  0  0
  217 811  54   0   0   0  0  0
  218 2192   0 125 125 125  0  0
  219 4767   0   0   0   0  0  0
  220 218  55   0   0 126  0  0
  221  60   0   0   0   0  0  0
  222  68   0  67  65  89  0  0
  223 327   0  68   0   0  0  0
  224 1557   0 128  66  90  0  0
  225 811  56   0   0   0  0  0
  226 2192   0 125 125 125  0  0
  227 4767   0   0   0   0  0  0
  228 218  57   0   0 126  0  0
  229  60   0   0   0   0  0  0
  230  68   0  67  65  89  0  0
  231 327   0  68   0   0  0  0
  232 1557   0 128  66  90  0  0
  233 811  58   0   0   0  0  0
  234 2192   0 125 125 125  0  0
  235 4767   0   0   0   0  0  0
  236 218  59   0   0 126  0  0
  237  60   0   0   0   0  0  0
  238  68   0  67  65  89  0  0
  239 327   0  68   0   0  0  0
  240 1557   0 128  66  90  0  0
  241 811  60   0   0   0  0  0
  242 2192   0 125 125 125  0  0
  243 4767   0   0   0   0  0  0
  244 218  61   0   0 126  0  0
  245  60   0   0   0   0  0  0
  246  68   0  67  65  89  0  0
  247 327   0  68   0   0  0  0
  248 1557   0 128  66  90  0  0
  249 811  62   0   0   0  0  0
  250 2192   0 125 125 125  0  0
  251 4767   0   0   0   0  0  0
  252 218  63   0   0 126  0  0
  253  60   0   0   0   0  0  0
  254  68   0  67  65  89  0  0
  255 327   0  68   0   0  0  0
  256 1557   0 128  66  90  0  0
  257 811  64   0   0   0  0  0
  258 2192   0 125 125 125  0  0
  259 4767   0   0   0   0  0  0
  260 218  65   0   0 126  0  0
  261  60   0   0   0   0  0  0
  262  68   0  67  65  89  0  0
  263 327   0  68   0   0  0  0
  264 1557   0 128  66  90  0  0
  265 811  66   0   0   0  0  0
  266 2192   0 125 125 125  0  0
  267 4767   0   0   0   0  0  0
  268 218  67   0   0 126  0  0
  269  60   0   0   0   0  0  0
  270  68   0  67  65  89  0  0
  271 327   0  68   0   0  0  0
  272 1557   0 128  66  90  0  0
  273 811  68   0   0   0  0  0
  274 2192   0 125 125 125  0  0
  275 4767   0   0   0   0  0  0
  276 218  69   0   0 126  0  0
  277  60   0   0   0   0  0  0
  278  68   0  67  65  89  0  0
  279 327   0  68   0   0  0  0
  280 1557   0 128  66  90  0  0
  281 811  70   0   0   0  0  0
  282 2192   0 125 125 125  0  0
  283 4767   0   0   0   0  0  0
  284 218  71   0   0 126  0  0
  285  60   0   0   0   0  0  0
  286  68   0  67  65  89  0  0
  287 327   0  68   0   0  0  0
  288 1557   0 128  66  90  0  0
  289 811  72   0   0   0  0  0
  290 2192   0 125 125 125  0  0
  291 4767   0   0   0   0  0  0
  292 218  73   0   0 126  0  0
  293  60   0   0   0   0  0  0
  294  68   0  67  65  89  0  0
  295 327   0  68   0   0  0  0
  296 1557   0 128  66  90  0  0
[RF]
1      326.192 3 4 0 100 0 2.94961
2       638.55 7 8 0 100 0 4.5204
3      326.192 3 4 0 100 0 5.89921
4       638.55 7 8 0 100 0 7.47001
5      326.192 3 4 0 100 0 11.7984
6       638.55 7 8 0 100 0 13.3692
7      326.192 3 4 0 100 0 20.6472
8       638.55 7 8 0 100 0 22.218
9      326.192 3 4 0 100 0 32.4457
10       638.55 7 8 0 100 0 34.0165
11      326.192 3 4 0 100 0 47.1937
12       638.55 7 8 0 100 0 48.7645
13      326.192 3 4 0 100 0 64.8913
14       638.55 7 8 0 100 0 66.4621
15      326.192 3 4 0 100 0 85.5386
16       638.55 7 8 0 100 0 87.1094
17      326.192 3 4 0 100 0 109.135
18       638.55 7 8 0 100 0 110.706
19      326.192 3 4 0 100 0 135.682
20       638.55 7 8 0 100 0 137.253
21      326.192 3 4 0 100 0 165.178
22       638.55 7 8 0 100 0 166.749
23      326.192 3 4 0 100 0 197.624
24       638.55 7 8 0 100 0 199.194
25      326.192 3 4 0 100 0 233.019
26       638.55 7 8 0 100 0 234.59
27      326.192 3 4 0 100 0 271.364
28       638.55 7 8 0 100 0 272.935
29      326.192 3 4 0 100 0 312.658
30       638.55 7 8 0 100 0 314.229
31      326.192 3 4 0 100 0 356.902
32       638.55 7 8 0 100 0 358.473
33      326.192 3 4 0 100 0 404.096
34       638.55 7 8 0 100 0 405.667
35      326.192 3 4 0 100 0 454.239
36       638.55 7 8 0 100 0 455.81
37      326.192 3 4 0 100 0 507.332
38       638.55 7 8 0 100 0 508.903
39      326.192 3 4 0 100 0 563.375
40       638.55 7 8 0 100 0 564.946
41      326.192 3 4 0 100 0 622.367
42       638.55 7 8 0 100 0 623.938
43      326.192 3 4 0 100 0 684.309
44       638.55 7 8 0 100 0 685.879
45      326.192 3 4 0 100 0 749.2
46       638.55 7 8 0 100 0 750.771
47      326.192 3 4 0 100 0 817.041
48       638.55 7 8 0 100 0 818.612
49      326.192 3 4 0 100 0 887.832
50       638.55 7 8 0 100 0 889.402
51      326.192 3 4 0 100 0 961.572
52       638.55 7 8 0 100 0 963.142
53      326.192 3 4 0 100 0 1038.26
54       638.55 7 8 0 100 0 1039.83
55      326.192 3 4 0 100 0 1117.9
56       638.55 7 8 0 100 0 1119.47
57      326.192 3 4 0 100 0 1200.49
58       638.55 7 8 0 100 0 1202.06
59      326.192 3 4 0 100 0 1286.03
60       638.55 7 8 0 100 0 1287.6
61      326.192 3 4 0 100 0 1374.52
62       638.55 7 8 0 100 0 1376.09
63      326.192 3 4 0 100 0 1465.95
64       638.55 7 8 0 100 0 1467.53
65      326.192 3 4 0 100 0 1560.34
66       638.55 7 8 0 100 0 1561.91
67      326.192 3 4 0 100 0 1657.68
68       638.55 7 8 0 100 0 1659.25
69      326.192 3 4 0 100 0 1757.97
70       638.55 7 8 0 100 0 1759.54
71      326.192 3 4 0 100 0 1861.2
72       638.55 7 8 0 100 0 1862.77
73      326.192 3 4 0 100 0 1967.39
74       638.55 7 8 0 100 0 1968.96
75      326.192 3 4 0 100 0 2076.52
76       638.55 7 8 0 100 0 2078.09
77      326.192 3 4 0 100 0 2188.61
78       638.55 7 8 0 100 0 2190.18
79      326.192 3 4 0 100 0 2303.64
80       638.55 7 8 0 100 0 2305.21
81      326.192 3 4 0 100 0 2421.63
82       638.55 7 8 0 100 0 2423.2
83      326.192 3 4 0 100 0 2542.56
84       638.55 7 8 0 100 0 2544.13
85      326.192 3 4 0 100 0 2666.44
86       638.55 7 8 0 100 0 2668.02
87      326.192 3 4 0 100 0 2793.28
88       638.55 7 8 0 100 0 2794.85
89      326.192 3 4 0 100 0 2923.06
90       638.55 7 8 0 100 0 2924.63
91      326.192 3 4 0 100 0 3055.79
92       638.55 7 8 0 100 0 3057.36
93      326.192 3 4 0 100 0 3191.47
94       638.55 7 8 0 100 0 3193.04
95      326.192 3 4 0 100 0 3330.11
96       638.55 7 8 0 100 0 3331.68
97      326.192 3 4 0 100 0 3471.69
98       638.55 7 8 0 100 0 3473.26
99      326.192 3 4 0 100 0 3616.22
100       638.55 7 8 0 100 0 3617.79
101      326.192 3 4 0 100 0 3763.7
102       638.55 7 8 0 100 0 3765.27
103      326.192 3 4 0 100 0 3914.13
104       638.55 7 8 0 100 0 3915.7
105      326.192 3 4 0 100 0 4067.51
106       638.55 7 8 0 100 0 4069.08
107      326.192 3 4 0 100 0 4223.84
108       638.55 7 8 0 100 0 4225.41
109      326.192 3 4 0 100 0 4383.12
110       638.55 7 8 0 100 0 4384.69
111      326.192 3 4 0 100 0 4545.34
112       638.55 7 8 0 100 0 4546.91
113      326.192 3 4 0 100 0 4710.52
114       638.55 7 8 0 100 0 4712.09
115      326.192 3 4 0 100 0 4878.65
116       638.55 7 8 0 100 0 4880.22
117      326.192 3 4 0 100 0 5049.73
118       638.55 7 8 0 100 0 5051.3
119      326.192 3 4 0 100 0 5223.75
120       638.55 7 8 0 100 0 5225.32
121      326.192 3 4 0 100 0 5400.73
122       638.55 7 8 0 100 0 5402.3
123      326.192 3 4 0 100 0 5580.66
124       638.55 7 8 0 100 0 5582.23
125      326.192 3 4 0 100 0 5763.53
126       638.55 7 8 0 100 0 5765.1
127      326.192 3 4 0 100 0 5949.36
128       638.55 7 8 0 100 0 5950.93
129      326.192 3 4 0 100 0 6138.13
130       638.55 7 8 0 100 0 6139.7
131      326.192 3 4 0 100 0 6329.86
132       638.55 7 8 0 100 0 6331.43
133      326.192 3 4 0 100 0 6524.53
134       638.55 7 8 0 100 0 6526.1
135      326.192 3 4 0 100 0 6722.15
136       638.55 7 8 0 100 0 6723.72
137      326.192 3 4 0 100 0 6922.73
138       638.55 7 8 0 100 0 6924.3
139      326.192 3 4 0 100 0 7126.25
140       638.55 7 8 0 100 0 7127.82
141      326.192 3 4 0 100 0 7332.72
142       638.55 7 8 0 100 0 7334.29
143      326.192 3 4 0 100 0 7542.14
144       638.55 7 8 0 100 0 7543.71
145      326.192 3 4 0 100 0 7754.52
146       638.55 7 8 0 100 0 7756.09
147      326.192 3 4 0 100 0 7969.84
148       638.55 7 8 0 100 0 7971.41
149      326.192 3 4 0 100 0 8188.11
150       638.55 7 8 0 100 0 8189.68
151      326.192 3 4 0 100 0 8409.33
152       638.55 7 8 0 100 0 8410.9
153      326.192 3 4 0 100 0 8633.5
154       638.55 7 8 0 100 0 8635.07
155      326.192 3 4 0 100 0 8860.62
156       638.55 7 8 0 100 0 8862.19
157      326.192 3 4 0 100 0 9090.69
158       638.55 7 8 0 100 0 9092.26
159      326.192 3 4 0 100 0 9323.71
160       638.55 7 8 0 100 0 9325.28
161      326.192 3 4 0 100 0 9559.67
162       638.55 7 8 0 100 0 9561.25
163      326.192 3 4 0 100 0 9798.59
164       638.55 7 8 0 100 0 9800.16
165      326.192 3 4 0 100 0 10040.5
166       638.55 7 8 0 100 0 10042
167      326.192 3 4 0 100 0 10285.3
168       638.55 7 8 0 100 0 10286.8
169      326.192 3 4 0 100 0 10533
170       638.55 7 8 0 100 0 10534.6
171      326.192 3 4 0 100 0 10783.8
172       638.55 7 8 0 100 0 10785.3
173      326.192 3 4 0 100 0 11037.4
174       638.55 7 8 0 100 0 11039
175      326.192 3 4 0 100 0 11294
176       638.55 7 8 0 100 0 11295.6
177      326.192 3 4 0 100 0 11553.6
178       638.55 7 8 0 100 0 11555.2
179      326.192 3 4 0 100 0 11816.1
180       638.55 7 8 0 100 0 11817.7
181      326.192 3 4 0 100 0 12081.6
182       638.55 7 8 0 100 0 12083.2
183      326.192 3 4 0 100 0 12350
184       638.55 7 8 0 100 0 12351.6
185      326.192 3 4 0 100 0 12621.4
186       638.55 7 8 0 100 0 12622.9
187      326.192 3 4 0 100 0 12895.7
188       638.55 7 8 0 100 0 12897.3
189      326.192 3 4 0 100 0 13172.9
190       638.55 7 8 0 100 0 13174.5
191      326.192 3 4 0 100 0 13453.2
192       638.55 7 8 0 100 0 13454.7
193      326.192 3 4 0 100 0 13736.3
194       638.55 7 8 0 100 0 13737.9
195      326.192 3 4 0 100 0 14022.4
196       638.55 7 8 0 100 0 14024
197      326.192 3 4 0 100 0 14311.5
198       638.55 7 8 0 100 0 14313.1
199      326.192 3 4 0 100 0 14603.5
200       638.55 7 8 0 100 0 14605.1
201      326.192 3 4 0 100 0 14898.5
202       638.55 7 8 0 100 0 14900
203      326.192 3 4 0 100 0 15196.4
204       638.55 7 8 0 100 0 15197.9
205      326.192 3 4 0 100 0 15497.2
206       638.55 7 8 0 100 0 15498.8
207      326.192 3 4 0 100 0 15801
208       638.55 7 8 0 100 0 15802.6
209      326.192 3 4 0 100 0 16107.8
210       638.55 7 8 0 100 0 16109.4
211      326.192 3 4 0 100 0 16417.5
212       638.55 7 8 0 100 0 16419.1
213      326.192 3 4 0 100 0 16730.2
214       638.55 7 8 0 100 0 16731.7
215      326.192 3 4 0 100 0 17045.8
216       638.55 7 8 0 100 0 17047.3
217      326.192 3 4 0 100 0 17364.3
218       638.55 7 8 0 100 0 17365.9
219      326.192 3 4 0 100 0 17685.8
220       638.55 7 8 0 100 0 17687.4
221      326.192 3 4 0 100 0 18010.3
222       638.55 7 8 0 100 0 18011.9
223      326.192 3 4 0 100 0 18337.7
224       638.55 7 8 0 100 0 18339.3
225      326.192 3 4 0 100 0 18668.1
226       638.55 7 8 0 100 0 18669.6
227      326.192 3 4 0 100 0 19001.4
228       638.55 7 8 0 100 0 19002.9
229      326.192 3 4 0 100 0 2.94961
230       638.55 7 8 0 100 0 4.5204
231      652.384 3 4 0 100 0 2.94961
232      652.384 3 4 0 100 0 5.89921
233      652.384 3 4 0 100 0 11.7984
234      652.384 3 4 0 100 0 20.6472
235      652.384 3 4 0 100 0 32.4457
236      652.384 3 4 0 100 0 47.1937
237      652.384 3 4 0 100 0 64.8913
238      652.384 3 4 0 100 0 85.5386
239      652.384 3 4 0 100 0 109.135
240      652.384 3 4 0 100 0 135.682
241      652.384 3 4 0 100 0 165.178
242      652.384 3 4 0 100 0 197.624
243      652.384 3 4 0 100 0 233.019
244      652.384 3 4 0 100 0 271.364
245      652.384 3 4 0 100 0 312.658
246      652.384 3 4 0 100 0 356.902
247      652.384 3 4 0 100 0 404.096
248      652.384 3 4 0 100 0 454.239
249      652.384 3 4 0 100 0 507.332
250      652.384 3 4 0 100 0 563.375
251      652.384 3 4 0 100 0 622.367
252      652.384 3 4 0 100 0 684.309
253      652.384 3 4 0 100 0 749.2
254      652.384 3 4 0 100 0 817.041
255      652.384 3 4 0 100 0 887.832
256      652.384 3 4 0 100 0 961.572
257      652.384 3 4 0 100 0 1038.26
258      652.384 3 4 0 100 0 1117.9
259      652.384 3 4 0 100 0 1200.49
260      652.384 3 4 0 100 0 1286.03
261      652.384 3 4 0 100 0 1374.52
262      652.384 3 4 0 100 0 1465.95
263      652.384 3 4 0 100 0 1560.34
264      652.384 3 4 0 100 0 1657.68
265      652.384 3 4 0 100 0 1757.97
266      652.384 3 4 0 100 0 1861.2
267      652.384 3 4 0 100 0 1967.39
268      652.384 3 4 0 100 0 2076.52
269      652.384 3 4 0 100 0 2188.61
270      652.384 3 4 0 100 0 2303.64
271      652.384 3 4 0 100 0 2421.63
272      652.384 3 4 0 100 0 2542.56
273      652.384 3 4 0 100 0 2666.44
274      652.384 3 4 0 100 0 2793.28
275      652.384 3 4 0 100 0 2923.06
276      652.384 3 4 0 100 0 3055.79
277      652.384 3 4 0 100 0 3191.47
278      652.384 3 4 0 100 0 3330.11
279      652.384 3 4 0 100 0 3471.69
280      652.384 3 4 0 100 0 3616.22
281      652.384 3 4 0 100 0 3763.7
282      652.384 3 4 0 100 0 3914.13
283      652.384 3 4 0 100 0 4067.51
284      652.384 3 4 0 100 0 4223.84
285      652.384 3 4 0 100 0 4383.12
286      652.384 3 4 0 100 0 4545.34
287      652.384 3 4 0 100 0 4710.52
288      652.384 3 4 0 100 0 4878.65
289      652.384 3 4 0 100 0 5049.73
290      652.384 3 4 0 100 0 5223.75
291      652.384 3 4 0 100 0 5400.73
292      652.384 3 4 0 100 0 5580.66
293      652.384 3 4 0 100 0 5763.53
294      652.384 3 4 0 100 0 5949.36
295      652.384 3 4 0 100 0 6138.13
296      652.384 3 4 0 100 0 6329.86
297      652.384 3 4 0 100 0 6524.53
298      652.384 3 4 0 100 0 6722.15
299      652.384 3 4 0 100 0 6922.73
300      652.384 3 4 0 100 0 7126.25
301      652.384 3 4 0 100 0 7332.72
302      652.384 3 4 0 100 0 7542.14
303      652.384 3 4 0 100 0 7754.52
304      652.384 3 4 0 100 0 7969.84
305      652.384 3 4 0 100 0 8188.11
306      652.384 3 4 0 100 0 8409.33
307      652.384 3 4 0 100 0 8633.5
308      652.384 3 4 0 100 0 8860.62
309      652.384 3 4 0 100 0 9090.69
310      652.384 3 4 0 100 0 9323.71
311      652.384 3 4 0 100 0 9559.67
312      652.384 3 4 0 100 0 9798.59
313      652.384 3 4 0 100 0 10040.5
314      652.384 3 4 0 100 0 10285.3
315      652.384 3 4 0 100 0 10533
316      652.384 3 4 0 100 0 10783.8
317      652.384 3 4 0 100 0 11037.4
318      652.384 3 4 0 100 0 11294
319      652.384 3 4 0 100 0 11553.6
320      652.384 3 4 0 100 0 11816.1
321      652.384 3 4 0 100 0 12081.6
322      652.384 3 4 0 100 0 12350
323      652.384 3 4 0 100 0 12621.4
324      652.384 3 4 0 100 0 12895.7
325      652.384 3 4 0 100 0 13172.9
326      652.384 3 4 0 100 0 13453.2
327      652.384 3 4 0 100 0 13736.3
328      652.384 3 4 0 100 0 14022.4
329      652.384 3 4 0 100 0 14311.5
330      652.384 3 4 0 100 0 14603.5
331      652.384 3 4 0 100 0 14898.5
332      652.384 3 4 0 100 0 15196.4
333      652.384 3 4 0 100 0 15497.2
334      652.384 3 4 0 100 0 15801
335      652.384 3 4 0 100 0 16107.8
336      652.384 3 4 0 100 0 16417.5
337      652.384 3 4 0 100 0 16730.2
338      652.384 3 4 0 100 0 17045.8
339      652.384 3 4 0 100 0 17364.3
340      652.384 3 4 0 100 0 17685.8
341      652.384 3 4 0 100 0 18010.3
342      652.384 3 4 0 100 0 18337.7
343      652.384 3 4 0 100 0 18668.1
344      652.384 3 4 0 100 0 19001.4

# Format of arbitrary gradients:
#   time_shape_id of 0 means default timing (stepping with grad_raster starting at 1/2 of grad_raster)
# id amplitude amp_shape_id time_shape_id delay
# ..      Hz/m       ..         ..          us
[GRADIENTS]
68        78125 1 2 0
127       553186 5 6 0
128       553186 5 6 0

# Format of trapezoid gradients:
# id amplitude rise flat fall delay
# ..      Hz/m   us   us   us    us
[TRAP]
 1       337838 230  140 230   0
 2      -337838 230  140 230   0
 3       310497 210  180 210   0
 4      -310497 210  180 210   0
 5       292969 200  200 200   0
 6      -292969 200  200 200   0
 7       276296 190  220 190   0
 8      -276296 190  220 190   0
 9       260417 180  240 180   0
10      -260417 180  240 180   0
11       245276 170  260 170   0
12      -245276 170  260 170   0
13       230824 160  280 160   0
14      -230824 160  280 160   0
15       217014 150  300 150   0
16      -217014 150  300 150   0
17       203804 140  320 140   0
18      -203804 140  320 140   0
19       191157 130  340 130   0
20      -191157 130  340 130   0
21       182846 130  340 130   0
22      -182846 130  340 130   0
23       170898 120  360 120   0
24      -170898 120  360 120   0
25       159439 110  380 110   0
26      -159439 110  380 110   0
27       148438 100  400 100   0
28      -148438 100  400 100   0
29       140625 100  400 100   0
30      -140625 100  400 100   0
31       130208  90  420  90   0
32      -130208  90  420  90   0
33       122549  90  420  90   0
34      -122549  90  420  90   0
35       112680  80  440  80   0
36      -112680  80  440  80   0
37       103184  70  460  70   0
38      -103184  70  460  70   0
39      95813.7  70  460  70   0
40     -95813.7  70  460  70   0
41      86805.6  60  480  60   0
42     -86805.6  60  480  60   0
43      79571.8  60  480  60   0
44     -79571.8  60  480  60   0
45      71022.7  50  500  50   0
46     -71022.7  50  500  50   0
47      63920.5  50  500  50   0
48     -63920.5  50  500  50   0
49      55803.6  40  520  40   0
50     -55803.6  40  520  40   0
51      48828.1  40  520  40   0
52     -48828.1  40  520  40   0
53      41118.4  30  540  30   0
54     -41118.4  30  540  30   0
55      34265.4  30  540  30   0
56     -34265.4  30  540  30   0
57      26939.7  20  560  20   0
58     -26939.7  20  560  20   0
59      20204.7  20  560  20   0
60     -20204.7  20  560  20   0
61      13241.5  10  580  10   0
62     -13241.5  10  580  10   0
63      6620.76  10  580  10   0
64     -6620.76  10  580  10   0
65           -0  10  580  10   0
66            0  10  580  10   0
67      -424479 300    0 300   0
69       125457  90  500  90   0
70       553272 380 14630 380   0
71       108485  80  520  80   0
72       553130 380 14650 380   0
73      92069.6  70  540  70   0
74       553356 380 14660 380   0
75      76183.7  60  560  60   0
76       553214 380 14680 380   0
77      60802.1  50  580  50   0
78       553439 380 14690 380   0
79      45901.2  40  600  40   0
80       553298 380 14710 380   0
81      31458.7  30  620  30   0
82       553156 380 14730 380   0
83        17454  20  640  20   0
84       553381 380 14740 380   0
85      3867.22  10  660  10   0
86       553240 380 14760 380   0
87     -9459.01  10  660  10   0
88       553464 380 14770 380   0
89     -23130.5  20  640  20   0
90       553323 380 14790 380   0
91     -37222.6  30  620  30   0
92       553182 380 14810 380   0
93     -51755.1  40  600  40   0
94       553405 380 14820 380   0
95     -66748.9  50  580  50   0
96       553265 380 14840 380   0
97     -82226.4  60  560  60   0
98       553488 380 14850 380   0
99     -98211.4  70  540  70   0
100       553347 380 14870 380   0
101      -114729  80  520  80   0
102       553207 380 14890 380   0
103      -131807  90  500  90   0
104       553430 380 14900 380   0
105      -152096 110  460 110   0
106       553290 380 14920 380   0
107      -170756 120  440 120   0
108       553150 380 14940 380   0
109      -190094 130  420 130   0
110       553372 380 14950 380   0
111      -214114 150  380 150   0
112       553232 380 14970 380   0
113      -235402 160  360 160   0
114       553454 380 14980 380   0
115      -262675 180  320 180   0
116       553314 380 15000 380   0
117      -292221 200  280 200   0
118       553176 380 15020 380   0
119      -324336 220  240 220   0
120       553396 380 15030 380   0
121      -367728 250  180 250   0
122       553257 380 15050 380   0
123      -428338 290  100 290   0
124       553477 380 15060 380   0
125       553448 380 21160 380   0
126      49019.6  40 2040  40  60

# Format of ADC events:
# id num dwell delay freq phase
# ..  ..    ns    us   Hz   rad
[ADC]
1 64 50000 60 0 3763.7
2 64 50000 60 0 3914.13
3 64 50000 60 0 4067.51
4 64 50000 60 0 4223.84
5 64 50000 60 0 4383.12
6 64 50000 60 0 4545.34
7 64 50000 60 0 4710.52
8 64 50000 60 0 4878.65
9 64 50000 60 0 5049.73
10 64 50000 60 0 5223.75
11 64 50000 60 0 5400.73
12 64 50000 60 0 5580.66
13 64 50000 60 0 5763.53
14 64 50000 60 0 5949.36
15 64 50000 60 0 6138.13
16 64 50000 60 0 6329.86
17 64 50000 60 0 6524.53
18 64 50000 60 0 6722.15
19 64 50000 60 0 6922.73
20 64 50000 60 0 7126.25
21 64 50000 60 0 7332.72
22 64 50000 60 0 7542.14
23 64 50000 60 0 7754.52
24 64 50000 60 0 7969.84
25 64 50000 60 0 8188.11
26 64 50000 60 0 8409.33
27 64 50000 60 0 8633.5
28 64 50000 60 0 8860.62
29 64 50000 60 0 9090.69
30 64 50000 60 0 9323.71
31 64 50000 60 0 9559.67
32 64 50000 60 0 9798.59
33 64 50000 60 0 10040.5
34 64 50000 60 0 10285.3
35 64 50000 60 0 10533
36 64 50000 60 0 10783.8
37 64 50000 60 0 11037.4
38 64 50000 60 0 11294
39 64 50000 60 0 11553.6
40 64 50000 60 0 11816.1
41 64 50000 60 0 12081.6
42 64 50000 60 0 12350
43 64 50000 60 0 12621.4
44 64 50000 60 0 12895.7
45 64 50000 60 0 13172.9
46 64 50000 60 0 13453.2
47 64 50000 60 0 13736.3
48 64 50000 60 0 14022.4
49 64 50000 60 0 14311.5
50 64 50000 60 0 14603.5
51 64 50000 60 0 14898.5
52 64 50000 60 0 15196.4
53 64 50000 60 0 15497.2
54 64 50000 60 0 15801
55 64 50000 60 0 16107.8
56 64 50000 60 0 16417.5
57 64 50000 60 0 16730.2
58 64 50000 60 0 17045.8
59 64 50000 60 0 17364.3
60 64 50000 60 0 17685.8
61 64 50000 60 0 18010.3
62 64 50000 60 0 18337.7
63 64 50000 60 0 18668.1
64 64 50000 60 0 19001.4
65 64 50000 60 0 2.94961
66 64 50000 60 0 5.89921
67 64 50000 60 0 11.7984
68 64 50000 60 0 20.6472
69 64 50000 60 0 32.4457
70 64 50000 60 0 47.1937
71 64 50000 60 0 64.8913
72 64 50000 60 0 85.5386
73 64 50000 60 0 109.135
74 64 50000 60 0 135.682
75 64 50000 60 0 165.178
76 64 50000 60 0 197.624
77 64 50000 60 0 233.019
78 64 50000 60 0 271.364
79 64 50000 60 0 312.658
80 64 50000 60 0 356.902
81 64 50000 60 0 404.096
82 64 50000 60 0 454.239
83 64 50000 60 0 507.332
84 64 50000 60 0 563.375
85 64 50000 60 0 622.367
86 64 50000 60 0 684.309
87 64 50000 60 0 749.2
88 64 50000 60 0 817.041
89 64 50000 60 0 887.832
90 64 50000 60 0 961.572
91 64 50000 60 0 1038.26
92 64 50000 60 0 1117.9
93 64 50000 60 0 1200.49
94 64 50000 60 0 1286.03
95 64 50000 60 0 1374.52
96 64 50000 60 0 1465.95
97 64 50000 60 0 1560.34
98 64 50000 60 0 1657.68
99 64 50000 60 0 1757.97
100 64 50000 60 0 1861.2
101 64 50000 60 0 1967.39
102 64 50000 60 0 2076.52
103 64 50000 60 0 2188.61
104 64 50000 60 0 2303.64
105 64 50000 60 0 2421.63
106 64 50000 60 0 2542.56
107 64 50000 60 0 2666.44
108 64 50000 60 0 2793.28
109 64 50000 60 0 2923.06
