# Pulseq sequence file
# Created by PyPulseq

[VERSION]
major 1
minor 4
revision 0

[DEFINITIONS]
AdcRasterTime 1e-07 
BlockDurationRaster 1e-05 
FA 1 1.763 3.107 5.477 9.655 17.019 30 
FOV 0.256 0.256 0.016 
GradientRasterTime 1e-05 
Name vfagre3d 
RadiofrequencyRasterTime 1e-06 
ReconMatrixSize 128 128 8 
SliceThickness 0.016 
TE 0.006 
TR 0.025 
TotalDuration 232.75 

# Format of blocks:
# NUM DUR RF  GX  GY  GZ  ADC  EXT
[BLOCKS]
    1   0   0   0   0   0  0  1
    2   0   0   0   0   0  0  2
    3 234   1   0   0   3  0  0
    4  46   0   0   0   0  0  0
    5 112   0   1   4   5  0  0
    6 650   0   2   0   0  0  0
    7 1291   0   6   6   7  0  0
    8 167   0   0   0   0  0  0
    9 234   2   0   0   3  0  0
   10  46   0   0   0   0  0  0
   11 112   0   1   8   5  0  0
   12 650   0   2   0   0  0  0
   13 1291   0   6   6   7  0  0
   14 167   0   0   0   0  0  0
   15 234   3   0   0   3  0  0
   16  46   0   0   0   0  0  0
   17 112   0   1   4   5  0  0
   18 650   0   2   0   0  0  0
   19 1291   0   6   6   7  0  0
   20 167   0   0   0   0  0  0
   21 234   4   0   0   3  0  0
   22  46   0   0   0   0  0  0
   23 112   0   1   8   5  0  0
   24 650   0   2   0   0  0  0
   25 1291   0   6   6   7  0  0
   26 167   0   0   0   0  0  0
   27 234   5   0   0   3  0  0
   28  46   0   0   0   0  0  0
   29 112   0   1   4   5  0  0
   30 650   0   2   0   0  0  0
   31 1291   0   6   6   7  0  0
   32 167   0   0   0   0  0  0
   33 234   6   0   0   3  0  0
   34  46   0   0   0   0  0  0
   35 112   0   1   8   5  0  0
   36 650   0   2   0   0  0  0
   37 1291   0   6   6   7  0  0
   38 167   0   0   0   0  0  0
   39 234   7   0   0   3  0  0
   40  46   0   0   0   0  0  0
   41 112   0   1   4   5  0  0
   42 650   0   2   0   0  0  0
   43 1291   0   6   6   7  0  0
   44 167   0   0   0   0  0  0
   45 234   8   0   0   3  0  0
   46  46   0   0   0   0  0  0
   47 112   0   1   8   5  0  0
   48 650   0   2   0   0  0  0
   49 1291   0   6   6   7  0  0
   50 167   0   0   0   0  0  0
   51 234   9   0   0   3  0  0
   52  46   0   0   0   0  0  0
   53 112   0   1   4   5  0  0
   54 650   0   2   0   0  0  0
   55 1291   0   6   6   7  0  0
   56 167   0   0   0   0  0  0
   57 234  10   0   0   3  0  0
   58  46   0   0   0   0  0  0
   59 112   0   1   8   5  0  0
   60 650   0   2   0   0  0  0
   61 1291   0   6   6   7  0  0
   62 167   0   0   0   0  0  0
   63 234  11   0   0   3  0  0
   64  46   0   0   0   0  0  0
   65 112   0   1   4   5  0  0
   66 650   0   2   0   0  0  0
   67 1291   0   6   6   7  0  0
   68 167   0   0   0   0  0  0
   69 234  12   0   0   3  0  0
   70  46   0   0   0   0  0  0
   71 112   0   1   8   5  0  0
   72 650   0   2   0   0  0  0
   73 1291   0   6   6   7  0  0
   74 167   0   0   0   0  0  0
   75 234  13   0   0   3  0  0
   76  46   0   0   0   0  0  0
   77 112   0   1   4   5  0  0
   78 650   0   2   0   0  0  0
   79 1291   0   6   6   7  0  0
   80 167   0   0   0   0  0  0
   81 234  14   0   0   3  0  0
   82  46   0   0   0   0  0  0
   83 112   0   1   8   5  0  0
   84 650   0   2   0   0  0  0
   85 1291   0   6   6   7  0  0
   86 167   0   0   0   0  0  0
   87 234  15   0   0   3  0  0
   88  46   0   0   0   0  0  0
   89 112   0   1   4   5  0  0
   90 650   0   2   0   0  0  0
   91 1291   0   6   6   7  0  0
   92 167   0   0   0   0  0  0
   93 234  16   0   0   3  0  0
   94  46   0   0   0   0  0  0
   95 112   0   1   8   5  0  0
   96 650   0   2   0   0  0  0
   97 1291   0   6   6   7  0  0
   98 167   0   0   0   0  0  0
   99 234  17   0   0   3  0  0
  100  46   0   0   0   0  0  0
  101 112   0   1   4   5  0  0
  102 650   0   2   0   0  0  0
  103 1291   0   6   6   7  0  0
  104 167   0   0   0   0  0  0
  105 234  18   0   0   3  0  0
  106  46   0   0   0   0  0  0
  107 112   0   1   8   5  0  0
  108 650   0   2   0   0  0  0
  109 1291   0   6   6   7  0  0
  110 167   0   0   0   0  0  0
  111 234  19   0   0   3  0  0
  112  46   0   0   0   0  0  0
  113 112   0   1   4   5  0  0
  114 650   0   2   0   0  0  0
  115 1291   0   6   6   7  0  0
  116 167   0   0   0   0  0  0
  117 234  20   0   0   3  0  0
  118  46   0   0   0   0  0  0
  119 112   0   1   8   5  0  0
  120 650   0   2   0   0  0  0
  121 1291   0   6   6   7  0  0
  122 167   0   0   0   0  0  0
  123 234  21   0   0   3  0  0
  124  46   0   0   0   0  0  0
  125 112   0   1   4   5  0  0
  126 650   0   2   0   0  0  0
  127 1291   0   6   6   7  0  0
  128 167   0   0   0   0  0  0
  129 234  22   0   0   3  0  0
  130  46   0   0   0   0  0  0
  131 112   0   1   8   5  0  0
  132 650   0   2   0   0  0  0
  133 1291   0   6   6   7  0  0
  134 167   0   0   0   0  0  0
  135 234  23   0   0   3  0  0
  136  46   0   0   0   0  0  0
  137 112   0   1   4   5  0  0
  138 650   0   2   0   0  0  0
  139 1291   0   6   6   7  0  0
  140 167   0   0   0   0  0  0
  141 234  24   0   0   3  0  0
  142  46   0   0   0   0  0  0
  143 112   0   1   8   5  0  0
  144 650   0   2   0   0  0  0
  145 1291   0   6   6   7  0  0
  146 167   0   0   0   0  0  0
  147 234  25   0   0   3  0  0
  148  46   0   0   0   0  0  0
  149 112   0   1   4   5  0  0
  150 650   0   2   0   0  0  0
  151 1291   0   6   6   7  0  0
  152 167   0   0   0   0  0  0
  153 234  26   0   0   3  0  0
  154  46   0   0   0   0  0  0
  155 112   0   1   8   5  0  0
  156 650   0   2   0   0  0  0
  157 1291   0   6   6   7  0  0
  158 167   0   0   0   0  0  0
  159 234  27   0   0   3  0  0
  160  46   0   0   0   0  0  0
  161 112   0   1   4   5  0  0
  162 650   0   2   0   0  0  0
  163 1291   0   6   6   7  0  0
  164 167   0   0   0   0  0  0
  165 234  28   0   0   3  0  0
  166  46   0   0   0   0  0  0
  167 112   0   1   8   5  0  0
  168 650   0   2   0   0  0  0
  169 1291   0   6   6   7  0  0
  170 167   0   0   0   0  0  0
  171 234  29   0   0   3  0  0
  172  46   0   0   0   0  0  0
  173 112   0   1   4   5  0  0
  174 650   0   2   0   0  0  0
  175 1291   0   6   6   7  0  0
  176 167   0   0   0   0  0  0
  177 234  30   0   0   3  0  0
  178  46   0   0   0   0  0  0
  179 112   0   1   8   5  0  0
  180 650   0   2   0   0  0  0
  181 1291   0   6   6   7  0  0
  182 167   0   0   0   0  0  0
  183 234  31   0   0   3  0  0
  184  46   0   0   0   0  0  0
  185 112   0   1   4   5  0  0
  186 650   0   2   0   0  0  0
  187 1291   0   6   6   7  0  0
  188 167   0   0   0   0  0  0
  189 234  32   0   0   3  0  0
  190  46   0   0   0   0  0  0
  191 112   0   1   8   5  0  0
  192 650   0   2   0   0  0  0
  193 1291   0   6   6   7  0  0
  194 167   0   0   0   0  0  0
  195 234  33   0   0   3  0  0
  196  46   0   0   0   0  0  0
  197 112   0   1   4   5  0  0
  198 650   0   2   0   0  0  0
  199 1291   0   6   6   7  0  0
  200 167   0   0   0   0  0  0
  201 234  34   0   0   3  0  0
  202  46   0   0   0   0  0  0
  203 112   0   1   8   5  0  0
  204 650   0   2   0   0  0  0
  205 1291   0   6   6   7  0  0
  206 167   0   0   0   0  0  0
  207 234  35   0   0   3  0  0
  208  46   0   0   0   0  0  0
  209 112   0   1   4   5  0  0
  210 650   0   2   0   0  0  0
  211 1291   0   6   6   7  0  0
  212 167   0   0   0   0  0  0
  213 234  36   0   0   3  0  0
  214  46   0   0   0   0  0  0
  215 112   0   1   8   5  0  0
  216 650   0   2   0   0  0  0
  217 1291   0   6   6   7  0  0
  218 167   0   0   0   0  0  0
  219 234  37   0   0   3  0  0
  220  46   0   0   0   0  0  0
  221 112   0   1   4   5  0  0
  222 650   0   2   0   0  0  0
  223 1291   0   6   6   7  0  0
  224 167   0   0   0   0  0  0
  225 234  38   0   0   3  0  0
  226  46   0   0   0   0  0  0
  227 112   0   1   8   5  0  0
  228 650   0   2   0   0  0  0
  229 1291   0   6   6   7  0  0
  230 167   0   0   0   0  0  0
  231 234  39   0   0   3  0  0
  232  46   0   0   0   0  0  0
  233 112   0   1   4   5  0  0
  234 650   0   2   0   0  0  0
  235 1291   0   6   6   7  0  0
  236 167   0   0   0   0  0  0
  237 234  40   0   0   3  0  0
  238  46   0   0   0   0  0  0
  239 112   0   1   8   5  0  0
  240 650   0   2   0   0  0  0
  241 1291   0   6   6   7  0  0
  242 167   0   0   0   0  0  0
  243 234  41   0   0   3  0  0
  244  46   0   0   0   0  0  0
  245 112   0   1   4   5  0  0
  246 650   0   2   0   0  0  0
  247 1291   0   6   6   7  0  0
  248 167   0   0   0   0  0  0
  249 234  42   0   0   3  0  0
  250  46   0   0   0   0  0  0
  251 112   0   1   8   5  0  0
  252 650   0   2   0   0  0  0
  253 1291   0   6   6   7  0  0
  254 167   0   0   0   0  0  0
  255 234  43   0   0   3  0  0
  256  46   0   0   0   0  0  0
  257 112   0   1   4   5  0  0
  258 650   0   2   0   0  0  0
  259 1291   0   6   6   7  0  0
  260 167   0   0   0   0  0  0
  261 234  44   0   0   3  0  0
  262  46   0   0   0   0  0  0
  263 112   0   1   8   5  0  0
  264 650   0   2   0   0  0  0
  265 1291   0   6   6   7  0  0
  266 167   0   0   0   0  0  0
  267 234  45   0   0   3  0  0
  268  46   0   0   0   0  0  0
  269 112   0   1   4   5  0  0
  270 650   0   2   0   0  0  0
  271 1291   0   6   6   7  0  0
  272 167   0   0   0   0  0  0
  273 234  46   0   0   3  0  0
  274  46   0   0   0   0  0  0
  275 112   0   1   8   5  0  0
  276 650   0   2   0   0  0  0
  277 1291   0   6   6   7  0  0
  278 167   0   0   0   0  0  0
  279 234  47   0   0   3  0  0
  280  46   0   0   0   0  0  0
  281 112   0   1   4   5  0  0
  282 650   0   2   0   0  0  0
  283 1291   0   6   6   7  0  0
  284 167   0   0   0   0  0  0
  285 234  48   0   0   3  0  0
  286  46   0   0   0   0  0  0
  287 112   0   1   8   5  0  0
  288 650   0   2   0   0  0  0
  289 1291   0   6   6   7  0  0
  290 167   0   0   0   0  0  0
  291 234  49   0   0   3  0  0
  292  46   0   0   0   0  0  0
  293 112   0   1   4   5  0  0
  294 650   0   2   0   0  0  0
  295 1291   0   6   6   7  0  0
  296 167   0   0   0   0  0  0
  297 234  50   0   0   3  0  0
[RF]
1      10.8731 1 2 3 150 0 2.04204
2      10.8731 1 2 3 150 0 4.08407
3      10.8731 1 2 3 150 0 8.16814
4      10.8731 1 2 3 150 0 14.2942
5      10.8731 1 2 3 150 0 22.4624
6      10.8731 1 2 3 150 0 32.6726
7      10.8731 1 2 3 150 0 44.9248
8      10.8731 1 2 3 150 0 59.219
9      10.8731 1 2 3 150 0 75.5553
10      10.8731 1 2 3 150 0 93.9336
11      10.8731 1 2 3 150 0 114.354
12      10.8731 1 2 3 150 0 136.816
13      10.8731 1 2 3 150 0 161.321
14      10.8731 1 2 3 150 0 187.867
15      10.8731 1 2 3 150 0 216.456
16      10.8731 1 2 3 150 0 247.086
17      10.8731 1 2 3 150 0 279.759
18      10.8731 1 2 3 150 0 314.473
19      10.8731 1 2 3 150 0 351.23
20      10.8731 1 2 3 150 0 390.029
21      10.8731 1 2 3 150 0 430.869
22      10.8731 1 2 3 150 0 473.752
23      10.8731 1 2 3 150 0 518.677
24      10.8731 1 2 3 150 0 565.644
25      10.8731 1 2 3 150 0 614.653
26      10.8731 1 2 3 150 0 665.703
27      10.8731 1 2 3 150 0 718.796
28      10.8731 1 2 3 150 0 773.931
29      10.8731 1 2 3 150 0 831.108
30      10.8731 1 2 3 150 0 890.327
31      10.8731 1 2 3 150 0 951.588
32      10.8731 1 2 3 150 0 1014.89
33      10.8731 1 2 3 150 0 1080.24
34      10.8731 1 2 3 150 0 1147.62
35      10.8731 1 2 3 150 0 1217.05
36      10.8731 1 2 3 150 0 1288.52
37      10.8731 1 2 3 150 0 1362.04
38      10.8731 1 2 3 150 0 1437.59
39      10.8731 1 2 3 150 0 1515.19
40      10.8731 1 2 3 150 0 1594.83
41      10.8731 1 2 3 150 0 1676.51
42      10.8731 1 2 3 150 0 1760.23
43      10.8731 1 2 3 150 0 1846
44      10.8731 1 2 3 150 0 1933.81
45      10.8731 1 2 3 150 0 2023.66
46      10.8731 1 2 3 150 0 2115.55
47      10.8731 1 2 3 150 0 2209.48
48      10.8731 1 2 3 150 0 2305.46
49      10.8731 1 2 3 150 0 2403.48
50      10.8731 1 2 3 150 0 2503.54
51      10.8731 1 2 3 150 0 2605.64
52      10.8731 1 2 3 150 0 2709.78
53      10.8731 1 2 3 150 0 2815.97
54      10.8731 1 2 3 150 0 2924.19
55      10.8731 1 2 3 150 0 3034.46
56      10.8731 1 2 3 150 0 3146.78
57      10.8731 1 2 3 150 0 3261.13
58      10.8731 1 2 3 150 0 3377.53
59      10.8731 1 2 3 150 0 3495.96
60      10.8731 1 2 3 150 0 3616.44
61      10.8731 1 2 3 150 0 3738.97
62      10.8731 1 2 3 150 0 3863.53
63      10.8731 1 2 3 150 0 3990.14
64      10.8731 1 2 3 150 0 4118.79
65      10.8731 1 2 3 150 0 4249.48
66      10.8731 1 2 3 150 0 4382.21
67      10.8731 1 2 3 150 0 4516.98
68      10.8731 1 2 3 150 0 4653.8
69      10.8731 1 2 3 150 0 4792.66
70      10.8731 1 2 3 150 0 4933.56
71      10.8731 1 2 3 150 0 5076.5
72      10.8731 1 2 3 150 0 5221.48
73      10.8731 1 2 3 150 0 5368.51
74      10.8731 1 2 3 150 0 5517.58
75      10.8731 1 2 3 150 0 5668.69
76      10.8731 1 2 3 150 0 5821.84
77      10.8731 1 2 3 150 0 5977.04
78      10.8731 1 2 3 150 0 6134.27
79      10.8731 1 2 3 150 0 6293.55
80      10.8731 1 2 3 150 0 6454.87
81      10.8731 1 2 3 150 0 6618.24
82      10.8731 1 2 3 150 0 6783.64
83      10.8731 1 2 3 150 0 6951.09
84      10.8731 1 2 3 150 0 7120.58
85      10.8731 1 2 3 150 0 7292.11
86      10.8731 1 2 3 150 0 7465.68
87      10.8731 1 2 3 150 0 7641.3
88      10.8731 1 2 3 150 0 7818.95
89      10.8731 1 2 3 150 0 7998.65
90      10.8731 1 2 3 150 0 8180.39
91      10.8731 1 2 3 150 0 8364.18
92      10.8731 1 2 3 150 0 8550
93      10.8731 1 2 3 150 0 8737.87
94      10.8731 1 2 3 150 0 8927.78
95      10.8731 1 2 3 150 0 9119.73
96      10.8731 1 2 3 150 0 9313.72
97      10.8731 1 2 3 150 0 9509.76
98      10.8731 1 2 3 150 0 9707.84
99      10.8731 1 2 3 150 0 9907.95
100      10.8731 1 2 3 150 0 10110.1
101      10.8731 1 2 3 150 0 10314.3
102      10.8731 1 2 3 150 0 10520.6
103      10.8731 1 2 3 150 0 10728.9
104      10.8731 1 2 3 150 0 10939.2
105      10.8731 1 2 3 150 0 11151.6
106      10.8731 1 2 3 150 0 11366
107      10.8731 1 2 3 150 0 11582.4
108      10.8731 1 2 3 150 0 11800.9
109      10.8731 1 2 3 150 0 12021.5
110      10.8731 1 2 3 150 0 12244
111      10.8731 1 2 3 150 0 12468.7
112      10.8731 1 2 3 150 0 12695.3
113      10.8731 1 2 3 150 0 12924
114      10.8731 1 2 3 150 0 13154.8
115      10.8731 1 2 3 150 0 13387.6
116      10.8731 1 2 3 150 0 13622.4
117      10.8731 1 2 3 150 0 13859.3
118      10.8731 1 2 3 150 0 14098.2
119      10.8731 1 2 3 150 0 14339.2
120      10.8731 1 2 3 150 0 14582.2
121      10.8731 1 2 3 150 0 14827.2
122      10.8731 1 2 3 150 0 15074.3
123      10.8731 1 2 3 150 0 15323.4
124      10.8731 1 2 3 150 0 15574.6
125      10.8731 1 2 3 150 0 15827.8
126      10.8731 1 2 3 150 0 16083.1
127      10.8731 1 2 3 150 0 16340.4
128      10.8731 1 2 3 150 0 16599.7
129      10.8731 1 2 3 150 0 16861.1
130      19.1692 1 2 3 100 0 2.04204
131      19.1692 1 2 3 100 0 4.08407
132      19.1692 1 2 3 100 0 8.16814
133      19.1692 1 2 3 100 0 14.2942
134      19.1692 1 2 3 100 0 22.4624
135      19.1692 1 2 3 100 0 32.6726
136      19.1692 1 2 3 100 0 44.9248
137      19.1692 1 2 3 100 0 59.219
138      19.1692 1 2 3 100 0 75.5553
139      19.1692 1 2 3 100 0 93.9336
140      19.1692 1 2 3 100 0 114.354
141      19.1692 1 2 3 100 0 136.816
142      19.1692 1 2 3 100 0 161.321
143      19.1692 1 2 3 100 0 187.867
144      19.1692 1 2 3 100 0 216.456
145      19.1692 1 2 3 100 0 247.086
146      19.1692 1 2 3 100 0 279.759
147      19.1692 1 2 3 100 0 314.473
148      19.1692 1 2 3 100 0 351.23
149      19.1692 1 2 3 100 0 390.029
150      19.1692 1 2 3 100 0 430.869
151      19.1692 1 2 3 100 0 473.752
152      19.1692 1 2 3 100 0 518.677
153      19.1692 1 2 3 100 0 565.644
154      19.1692 1 2 3 100 0 614.653
155      19.1692 1 2 3 100 0 665.703
156      19.1692 1 2 3 100 0 718.796
157      19.1692 1 2 3 100 0 773.931
158      19.1692 1 2 3 100 0 831.108
159      19.1692 1 2 3 100 0 890.327
160      19.1692 1 2 3 100 0 951.588
161      19.1692 1 2 3 100 0 1014.89
162      19.1692 1 2 3 100 0 1080.24
163      19.1692 1 2 3 100 0 1147.62
164      19.1692 1 2 3 100 0 1217.05
165      19.1692 1 2 3 100 0 1288.52
166      19.1692 1 2 3 100 0 1362.04
167      19.1692 1 2 3 100 0 1437.59
168      19.1692 1 2 3 100 0 1515.19
169      19.1692 1 2 3 100 0 1594.83
170      19.1692 1 2 3 100 0 1676.51
171      19.1692 1 2 3 100 0 1760.23
172      19.1692 1 2 3 100 0 1846
173      19.1692 1 2 3 100 0 1933.81
174      19.1692 1 2 3 100 0 2023.66
175      19.1692 1 2 3 100 0 2115.55
176      19.1692 1 2 3 100 0 2209.48
177      19.1692 1 2 3 100 0 2305.46
178      19.1692 1 2 3 100 0 2403.48
179      19.1692 1 2 3 100 0 2503.54
180      19.1692 1 2 3 100 0 2605.64
181      19.1692 1 2 3 100 0 2709.78
182      19.1692 1 2 3 100 0 2815.97
183      19.1692 1 2 3 100 0 2924.19
184      19.1692 1 2 3 100 0 3034.46
185      19.1692 1 2 3 100 0 3146.78
186      19.1692 1 2 3 100 0 3261.13
187      19.1692 1 2 3 100 0 3377.53
188      19.1692 1 2 3 100 0 3495.96
189      19.1692 1 2 3 100 0 3616.44
190      19.1692 1 2 3 100 0 3738.97
191      19.1692 1 2 3 100 0 3863.53
192      19.1692 1 2 3 100 0 3990.14
193      19.1692 1 2 3 100 0 4118.79
194      19.1692 1 2 3 100 0 4249.48
195      19.1692 1 2 3 100 0 4382.21
196      19.1692 1 2 3 100 0 4516.98
197      19.1692 1 2 3 100 0 4653.8
198      19.1692 1 2 3 100 0 4792.66
199      19.1692 1 2 3 100 0 4933.56
200      19.1692 1 2 3 100 0 5076.5
201      19.1692 1 2 3 100 0 5221.48
202      19.1692 1 2 3 100 0 5368.51
203      19.1692 1 2 3 100 0 5517.58
204      19.1692 1 2 3 100 0 5668.69
205      19.1692 1 2 3 100 0 5821.84
206      19.1692 1 2 3 100 0 5977.04
207      19.1692 1 2 3 100 0 6134.27
208      19.1692 1 2 3 100 0 6293.55
209      19.1692 1 2 3 100 0 6454.87
210      19.1692 1 2 3 100 0 6618.24
211      19.1692 1 2 3 100 0 6783.64
212      19.1692 1 2 3 100 0 6951.09
213      19.1692 1 2 3 100 0 7120.58
214      19.1692 1 2 3 100 0 7292.11
215      19.1692 1 2 3 100 0 7465.68
216      19.1692 1 2 3 100 0 7641.3
217      19.1692 1 2 3 100 0 7818.95
218      19.1692 1 2 3 100 0 7998.65
219      19.1692 1 2 3 100 0 8180.39
220      19.1692 1 2 3 100 0 8364.18
221      19.1692 1 2 3 100 0 8550
222      19.1692 1 2 3 100 0 8737.87
223      19.1692 1 2 3 100 0 8927.78
224      19.1692 1 2 3 100 0 9119.73
225      19.1692 1 2 3 100 0 9313.72
226      19.1692 1 2 3 100 0 9509.76
227      19.1692 1 2 3 100 0 9707.84
228      19.1692 1 2 3 100 0 9907.95
229      19.1692 1 2 3 100 0 10110.1
230      19.1692 1 2 3 100 0 10314.3
231      19.1692 1 2 3 100 0 10520.6
232      19.1692 1 2 3 100 0 10728.9
233      19.1692 1 2 3 100 0 10939.2
234      19.1692 1 2 3 100 0 11151.6
235      19.1692 1 2 3 100 0 11366
236      19.1692 1 2 3 100 0 11582.4
237      19.1692 1 2 3 100 0 11800.9
238      19.1692 1 2 3 100 0 12021.5
239      19.1692 1 2 3 100 0 12244
240      19.1692 1 2 3 100 0 12468.7
241      19.1692 1 2 3 100 0 12695.3
242      19.1692 1 2 3 100 0 12924
243      19.1692 1 2 3 100 0 13154.8
244      19.1692 1 2 3 100 0 13387.6
245      19.1692 1 2 3 100 0 13622.4
246      19.1692 1 2 3 100 0 13859.3
247      19.1692 1 2 3 100 0 14098.2
248      19.1692 1 2 3 100 0 14339.2
249      19.1692 1 2 3 100 0 14582.2
250      19.1692 1 2 3 100 0 14827.2
251      19.1692 1 2 3 100 0 15074.3
252      19.1692 1 2 3 100 0 15323.4
253      19.1692 1 2 3 100 0 15574.6
254      19.1692 1 2 3 100 0 15827.8
255      19.1692 1 2 3 100 0 16083.1
256      19.1692 1 2 3 100 0 16340.4
257      19.1692 1 2 3 100 0 16599.7
258      19.1692 1 2 3 100 0 16861.1
259      33.7826 1 2 3 100 0 2.04204
260      33.7826 1 2 3 100 0 4.08407
261      33.7826 1 2 3 100 0 8.16814
262      33.7826 1 2 3 100 0 14.2942
263      33.7826 1 2 3 100 0 22.4624
264      33.7826 1 2 3 100 0 32.6726
265      33.7826 1 2 3 100 0 44.9248
266      33.7826 1 2 3 100 0 59.219
267      33.7826 1 2 3 100 0 75.5553
268      33.7826 1 2 3 100 0 93.9336
269      33.7826 1 2 3 100 0 114.354
270      33.7826 1 2 3 100 0 136.816
271      33.7826 1 2 3 100 0 161.321
272      33.7826 1 2 3 100 0 187.867
273      33.7826 1 2 3 100 0 216.456
274      33.7826 1 2 3 100 0 247.086
275      33.7826 1 2 3 100 0 279.759
276      33.7826 1 2 3 100 0 314.473
277      33.7826 1 2 3 100 0 351.23
278      33.7826 1 2 3 100 0 390.029
279      33.7826 1 2 3 100 0 430.869
280      33.7826 1 2 3 100 0 473.752
281      33.7826 1 2 3 100 0 518.677
282      33.7826 1 2 3 100 0 565.644
283      33.7826 1 2 3 100 0 614.653
284      33.7826 1 2 3 100 0 665.703
285      33.7826 1 2 3 100 0 718.796
286      33.7826 1 2 3 100 0 773.931
287      33.7826 1 2 3 100 0 831.108
288      33.7826 1 2 3 100 0 890.327
289      33.7826 1 2 3 100 0 951.588
290      33.7826 1 2 3 100 0 1014.89
291      33.7826 1 2 3 100 0 1080.24
292      33.7826 1 2 3 100 0 1147.62
293      33.7826 1 2 3 100 0 1217.05
294      33.7826 1 2 3 100 0 1288.52
295      33.7826 1 2 3 100 0 1362.04
296      33.7826 1 2 3 100 0 1437.59
297      33.7826 1 2 3 100 0 1515.19
298      33.7826 1 2 3 100 0 1594.83
299      33.7826 1 2 3 100 0 1676.51
300      33.7826 1 2 3 100 0 1760.23
301      33.7826 1 2 3 100 0 1846
302      33.7826 1 2 3 100 0 1933.81
303      33.7826 1 2 3 100 0 2023.66
304      33.7826 1 2 3 100 0 2115.55
305      33.7826 1 2 3 100 0 2209.48
306      33.7826 1 2 3 100 0 2305.46
307      33.7826 1 2 3 100 0 2403.48
308      33.7826 1 2 3 100 0 2503.54
309      33.7826 1 2 3 100 0 2605.64
310      33.7826 1 2 3 100 0 2709.78
311      33.7826 1 2 3 100 0 2815.97
312      33.7826 1 2 3 100 0 2924.19
313      33.7826 1 2 3 100 0 3034.46
314      33.7826 1 2 3 100 0 3146.78
315      33.7826 1 2 3 100 0 3261.13
316      33.7826 1 2 3 100 0 3377.53
317      33.7826 1 2 3 100 0 3495.96
318      33.7826 1 2 3 100 0 3616.44
319      33.7826 1 2 3 100 0 3738.97
320      33.7826 1 2 3 100 0 3863.53
321      33.7826 1 2 3 100 0 3990.14
322      33.7826 1 2 3 100 0 4118.79
323      33.7826 1 2 3 100 0 4249.48
324      33.7826 1 2 3 100 0 4382.21
325      33.7826 1 2 3 100 0 4516.98
326      33.7826 1 2 3 100 0 4653.8
327      33.7826 1 2 3 100 0 4792.66
328      33.7826 1 2 3 100 0 4933.56
329      33.7826 1 2 3 100 0 5076.5
330      33.7826 1 2 3 100 0 5221.48
331      33.7826 1 2 3 100 0 5368.51
332      33.7826 1 2 3 100 0 5517.58
333      33.7826 1 2 3 100 0 5668.69
334      33.7826 1 2 3 100 0 5821.84
335      33.7826 1 2 3 100 0 5977.04
336      33.7826 1 2 3 100 0 6134.27
337      33.7826 1 2 3 100 0 6293.55
338      33.7826 1 2 3 100 0 6454.87
339      33.7826 1 2 3 100 0 6618.24
340      33.7826 1 2 3 100 0 6783.64
341      33.7826 1 2 3 100 0 6951.09
342      33.7826 1 2 3 100 0 7120.58
343      33.7826 1 2 3 100 0 7292.11
344      33.7826 1 2 3 100 0 7465.68
345      33.7826 1 2 3 100 0 7641.3
346      33.7826 1 2 3 100 0 7818.95
347      33.7826 1 2 3 100 0 7998.65
348      33.7826 1 2 3 100 0 8180.39
349      33.7826 1 2 3 100 0 8364.18
350      33.7826 1 2 3 100 0 8550
351      33.7826 1 2 3 100 0 8737.87
352      33.7826 1 2 3 100 0 8927.78
353      33.7826 1 2 3 100 0 9119.73
354      33.7826 1 2 3 100 0 9313.72
355      33.7826 1 2 3 100 0 9509.76
356      33.7826 1 2 3 100 0 9707.84
357      33.7826 1 2 3 100 0 9907.95
358      33.7826 1 2 3 100 0 10110.1
359      33.7826 1 2 3 100 0 10314.3
360      33.7826 1 2 3 100 0 10520.6
361      33.7826 1 2 3 100 0 10728.9
362      33.7826 1 2 3 100 0 10939.2
363      33.7826 1 2 3 100 0 11151.6
364      33.7826 1 2 3 100 0 11366
365      33.7826 1 2 3 100 0 11582.4
366      33.7826 1 2 3 100 0 11800.9
367      33.7826 1 2 3 100 0 12021.5
368      33.7826 1 2 3 100 0 12244
369      33.7826 1 2 3 100 0 12468.7
370      33.7826 1 2 3 100 0 12695.3
371      33.7826 1 2 3 100 0 12924
372      33.7826 1 2 3 100 0 13154.8
373      33.7826 1 2 3 100 0 13387.6
374      33.7826 1 2 3 100 0 13622.4
375      33.7826 1 2 3 100 0 13859.3
376      33.7826 1 2 3 100 0 14098.2
377      33.7826 1 2 3 100 0 14339.2
378      33.7826 1 2 3 100 0 14582.2
379      33.7826 1 2 3 100 0 14827.2
380      33.7826 1 2 3 100 0 15074.3
381      33.7826 1 2 3 100 0 15323.4
382      33.7826 1 2 3 100 0 15574.6
383      33.7826 1 2 3 100 0 15827.8
384      33.7826 1 2 3 100 0 16083.1
385      33.7826 1 2 3 100 0 16340.4
386      33.7826 1 2 3 100 0 16599.7
387      33.7826 1 2 3 100 0 16861.1
388      59.5518 1 2 3 100 0 2.04204
389      59.5518 1 2 3 100 0 4.08407
390      59.5518 1 2 3 100 0 8.16814
391      59.5518 1 2 3 100 0 14.2942
392      59.5518 1 2 3 100 0 22.4624
393      59.5518 1 2 3 100 0 32.6726
394      59.5518 1 2 3 100 0 44.9248
395      59.5518 1 2 3 100 0 59.219
396      59.5518 1 2 3 100 0 75.5553
397      59.5518 1 2 3 100 0 93.9336
398      59.5518 1 2 3 100 0 114.354
399      59.5518 1 2 3 100 0 136.816
400      59.5518 1 2 3 100 0 161.321
401      59.5518 1 2 3 100 0 187.867
402      59.5518 1 2 3 100 0 216.456
403      59.5518 1 2 3 100 0 247.086
404      59.5518 1 2 3 100 0 279.759
405      59.5518 1 2 3 100 0 314.473
406      59.5518 1 2 3 100 0 351.23
407      59.5518 1 2 3 100 0 390.029
408      59.5518 1 2 3 100 0 430.869
409      59.5518 1 2 3 100 0 473.752
410      59.5518 1 2 3 100 0 518.677
411      59.5518 1 2 3 100 0 565.644
412      59.5518 1 2 3 100 0 614.653
413      59.5518 1 2 3 100 0 665.703
414      59.5518 1 2 3 100 0 718.796
415      59.5518 1 2 3 100 0 773.931
416      59.5518 1 2 3 100 0 831.108
417      59.5518 1 2 3 100 0 890.327
418      59.5518 1 2 3 100 0 951.588
419      59.5518 1 2 3 100 0 1014.89
420      59.5518 1 2 3 100 0 1080.24
421      59.5518 1 2 3 100 0 1147.62
422      59.5518 1 2 3 100 0 1217.05
423      59.5518 1 2 3 100 0 1288.52
424      59.5518 1 2 3 100 0 1362.04
425      59.5518 1 2 3 100 0 1437.59
426      59.5518 1 2 3 100 0 1515.19
427      59.5518 1 2 3 100 0 1594.83
428      59.5518 1 2 3 100 0 1676.51
429      59.5518 1 2 3 100 0 1760.23
430      59.5518 1 2 3 100 0 1846
431      59.5518 1 2 3 100 0 1933.81
432      59.5518 1 2 3 100 0 2023.66
433      59.5518 1 2 3 100 0 2115.55
434      59.5518 1 2 3 100 0 2209.48
435      59.5518 1 2 3 100 0 2305.46
436      59.5518 1 2 3 100 0 2403.48
437      59.5518 1 2 3 100 0 2503.54
438      59.5518 1 2 3 100 0 2605.64
439      59.5518 1 2 3 100 0 2709.78
440      59.5518 1 2 3 100 0 2815.97
441      59.5518 1 2 3 100 0 2924.19
442      59.5518 1 2 3 100 0 3034.46
443      59.5518 1 2 3 100 0 3146.78
444      59.5518 1 2 3 100 0 3261.13
445      59.5518 1 2 3 100 0 3377.53
446      59.5518 1 2 3 100 0 3495.96
447      59.5518 1 2 3 100 0 3616.44
448      59.5518 1 2 3 100 0 3738.97
449      59.5518 1 2 3 100 0 3863.53
450      59.5518 1 2 3 100 0 3990.14
451      59.5518 1 2 3 100 0 4118.79
452      59.5518 1 2 3 100 0 4249.48
453      59.5518 1 2 3 100 0 4382.21
454      59.5518 1 2 3 100 0 4516.98
455      59.5518 1 2 3 100 0 4653.8
456      59.5518 1 2 3 100 0 4792.66
457      59.5518 1 2 3 100 0 4933.56
458      59.5518 1 2 3 100 0 5076.5
459      59.5518 1 2 3 100 0 5221.48
460      59.5518 1 2 3 100 0 5368.51
461      59.5518 1 2 3 100 0 5517.58
462      59.5518 1 2 3 100 0 5668.69
463      59.5518 1 2 3 100 0 5821.84
464      59.5518 1 2 3 100 0 5977.04
465      59.5518 1 2 3 100 0 6134.27
466      59.5518 1 2 3 100 0 6293.55
467      59.5518 1 2 3 100 0 6454.87
468      59.5518 1 2 3 100 0 6618.24
469      59.5518 1 2 3 100 0 6783.64
470      59.5518 1 2 3 100 0 6951.09
471      59.5518 1 2 3 100 0 7120.58
472      59.5518 1 2 3 100 0 7292.11
473      59.5518 1 2 3 100 0 7465.68
474      59.5518 1 2 3 100 0 7641.3
475      59.5518 1 2 3 100 0 7818.95
476      59.5518 1 2 3 100 0 7998.65
477      59.5518 1 2 3 100 0 8180.39
478      59.5518 1 2 3 100 0 8364.18
479      59.5518 1 2 3 100 0 8550
480      59.5518 1 2 3 100 0 8737.87
481      59.5518 1 2 3 100 0 8927.78
482      59.5518 1 2 3 100 0 9119.73
483      59.5518 1 2 3 100 0 9313.72
484      59.5518 1 2 3 100 0 9509.76
485      59.5518 1 2 3 100 0 9707.84
486      59.5518 1 2 3 100 0 9907.95
487      59.5518 1 2 3 100 0 10110.1
488      59.5518 1 2 3 100 0 10314.3
489      59.5518 1 2 3 100 0 10520.6
490      59.5518 1 2 3 100 0 10728.9
491      59.5518 1 2 3 100 0 10939.2
492      59.5518 1 2 3 100 0 11151.6
493      59.5518 1 2 3 100 0 11366
494      59.5518 1 2 3 100 0 11582.4
495      59.5518 1 2 3 100 0 11800.9
496      59.5518 1 2 3 100 0 12021.5
497      59.5518 1 2 3 100 0 12244
498      59.5518 1 2 3 100 0 12468.7
499      59.5518 1 2 3 100 0 12695.3
500      59.5518 1 2 3 100 0 12924
501      59.5518 1 2 3 100 0 13154.8
502      59.5518 1 2 3 100 0 13387.6
503      59.5518 1 2 3 100 0 13622.4
504      59.5518 1 2 3 100 0 13859.3
505      59.5518 1 2 3 100 0 14098.2
506      59.5518 1 2 3 100 0 14339.2
507      59.5518 1 2 3 100 0 14582.2
508      59.5518 1 2 3 100 0 14827.2
509      59.5518 1 2 3 100 0 15074.3
510      59.5518 1 2 3 100 0 15323.4
511      59.5518 1 2 3 100 0 15574.6
512      59.5518 1 2 3 100 0 15827.8
513      59.5518 1 2 3 100 0 16083.1
514      59.5518 1 2 3 100 0 16340.4
515      59.5518 1 2 3 100 0 16599.7
516      59.5518 1 2 3 100 0 16861.1
517      104.979 1 2 3 100 0 2.04204
518      104.979 1 2 3 100 0 4.08407
519      104.979 1 2 3 100 0 8.16814
520      104.979 1 2 3 100 0 14.2942
521      104.979 1 2 3 100 0 22.4624
522      104.979 1 2 3 100 0 32.6726
523      104.979 1 2 3 100 0 44.9248
524      104.979 1 2 3 100 0 59.219
525      104.979 1 2 3 100 0 75.5553
526      104.979 1 2 3 100 0 93.9336
527      104.979 1 2 3 100 0 114.354
528      104.979 1 2 3 100 0 136.816
529      104.979 1 2 3 100 0 161.321
530      104.979 1 2 3 100 0 187.867
531      104.979 1 2 3 100 0 216.456
532      104.979 1 2 3 100 0 247.086
533      104.979 1 2 3 100 0 279.759
534      104.979 1 2 3 100 0 314.473
535      104.979 1 2 3 100 0 351.23
536      104.979 1 2 3 100 0 390.029
537      104.979 1 2 3 100 0 430.869
538      104.979 1 2 3 100 0 473.752
539      104.979 1 2 3 100 0 518.677
540      104.979 1 2 3 100 0 565.644
541      104.979 1 2 3 100 0 614.653
542      104.979 1 2 3 100 0 665.703
543      104.979 1 2 3 100 0 718.796
544      104.979 1 2 3 100 0 773.931
545      104.979 1 2 3 100 0 831.108
